0.002;6.448461163;1031.753786;0;1650.806058;1444.4553;1444.4553;1444.4553;0;1421
0.004;1650.806058;619.0522716;0;1444.4553;1444.4553;1444.4553;1444.4553;0;1421
0.006;1650.806058;1031.753786;0;1444.4553;1444.4553;1444.4553;1444.4553;0;1421
0.008;1650.806058;1031.753786;0;1444.4553;1444.4553;1444.4553;1444.4553;0;1420
0.01;1650.806058;2888.910601;0;1238.104543;1444.4553;1444.4553;1444.4553;0;1419
0.012;1650.806058;2888.910601;0;1444.4553;1444.4553;1444.4553;1444.4553;0;1419
0.014;1444.4553;619.0522716;0;1444.4553;1444.4553;1444.4553;1444.4553;0;1419
0.016;1444.4553;206.3507572;0;1444.4553;1444.4553;1444.4553;1444.4553;0;1419
0.018;1444.4553;1650.806058;0;1444.4553;1444.4553;1444.4553;1444.4553;0;1419
0.02;1444.4553;2063.507572;0;1444.4553;1444.4553;1444.4553;1444.4553;0;1418
0.022;1650.806058;1857.156815;0;1650.806058;1444.4553;1444.4553;1444.4553;0;1418
0.024;1444.4553;1238.104543;0;1650.806058;1444.4553;1444.4553;1444.4553;0;1418
0.026;1444.4553;2888.910601;0;1650.806058;1444.4553;1444.4553;1444.4553;0;1418
0.028;1444.4553;1857.156815;0;1238.104543;1444.4553;1444.4553;1444.4553;0;1414
0.03;1650.806058;1444.4553;0;1444.4553;1444.4553;1444.4553;1444.4553;0;1413
0.032;1650.806058;1031.753786;0;1444.4553;1444.4553;1444.4553;1444.4553;0;1413
0.034;1650.806058;1444.4553;0;1444.4553;1444.4553;1444.4553;1444.4553;0;1413
0.036;1444.4553;1444.4553;0;1444.4553;1444.4553;1444.4553;1444.4553;0;1412
0.038;1444.4553;1238.104543;0;1238.104543;1444.4553;1444.4553;1444.4553;0;1411
0.04;1650.806058;1857.156815;0;1444.4553;1444.4553;1444.4553;1444.4553;0;1410
0.042;1650.806058;2476.209086;0;1238.104543;1444.4553;1444.4553;1444.4553;0;1410
0.044;1650.806058;2682.559844;0;1444.4553;1444.4553;1444.4553;1444.4553;0;1409
0.046;1444.4553;1031.753786;0;1444.4553;1444.4553;1444.4553;1444.4553;0;1409
0.048;1444.4553;0;0;1650.806058;1444.4553;1444.4553;1444.4553;0;1409
0.05;1650.806058;1238.104543;0;1444.4553;1444.4553;1444.4553;1444.4553;0;1409
0.052;1650.806058;2063.507572;0;1238.104543;1444.4553;1444.4553;1444.4553;0;1409
0.054;1650.806058;2888.910601;0;1444.4553;1444.4553;1444.4553;1444.4553;0;1410
0.056;1444.4553;2269.858329;0;1444.4553;1444.4553;1444.4553;1444.4553;0;1409
0.058;1444.4553;412.7015144;0;1444.4553;1444.4553;1444.4553;1444.4553;0;1409
0.06;1444.4553;412.7015144;0;1650.806058;1444.4553;1444.4553;1444.4553;0;1407
0.062;1444.4553;1650.806058;0;1444.4553;1444.4553;1444.4553;1444.4553;0;1406
0.064;1444.4553;1444.4553;0;1444.4553;1444.4553;1444.4553;1444.4553;0;1406
0.066;1444.4553;1031.753786;0;1238.104543;1444.4553;1444.4553;1444.4553;0;1406
0.068;1444.4553;1444.4553;0;1238.104543;1444.4553;1444.4553;1444.4553;0;1406
0.07;1650.806058;1857.156815;0;1444.4553;1444.4553;1444.4553;1444.4553;0;1406
0.072;1650.806058;2682.559844;0;1238.104543;1444.4553;1444.4553;1444.4553;0;1406
0.074;1444.4553;2476.209086;0;1238.104543;1444.4553;1444.4553;1444.4553;0;1406
0.076;1444.4553;619.0522716;0;1238.104543;1444.4553;1444.4553;1444.4553;0;1406
0.078;1444.4553;0;0;1444.4553;1444.4553;1444.4553;1444.4553;0;1405
0.08;1444.4553;2476.209086;0;1238.104543;1444.4553;1444.4553;1444.4553;0;1404
0.082;1650.806058;2063.507572;0;1238.104543;1444.4553;1444.4553;1444.4553;0;1412
0.084;1650.806058;1031.753786;0;1444.4553;1444.4553;1444.4553;1444.4553;0;1411
0.086;1650.806058;1238.104543;0;1444.4553;1444.4553;1444.4553;1444.4553;0;1410
0.088;1444.4553;1857.156815;0;1444.4553;1444.4553;1444.4553;1444.4553;0;1409
0.09;1444.4553;1238.104543;0;1444.4553;1444.4553;1444.4553;1444.4553;0;1408
0.092;1650.806058;1857.156815;0;1650.806058;1444.4553;1444.4553;1444.4553;0;1408
0.094;1650.806058;3095.261358;0;1444.4553;1444.4553;1444.4553;1444.4553;0;1407
0.096;1444.4553;2063.507572;0;1238.104543;1444.4553;1444.4553;1444.4553;0;1407
0.098;1444.4553;206.3507572;0;1444.4553;1444.4553;1444.4553;1444.4553;0;1406
0.1;1444.4553;1444.4553;0;1444.4553;1444.4553;1444.4553;1444.4553;0;1413
0.102;1444.4553;1857.156815;0;1444.4553;1444.4553;1444.4553;1444.4553;0;1412
0.104;1444.4553;412.7015144;0;1444.4553;1444.4553;1444.4553;1444.4553;0;1411
0.106;1444.4553;825.4030288;0;1444.4553;1444.4553;1444.4553;1444.4553;0;1404
0.108;1444.4553;2063.507572;0;1444.4553;1444.4553;1444.4553;1444.4553;0;1404
0.11;1444.4553;1444.4553;0;1444.4553;1444.4553;1444.4553;1444.4553;0;1402
0.112;1444.4553;619.0522716;0;1444.4553;1444.4553;1444.4553;1444.4553;0;1402
0.114;1650.806058;2682.559844;0;1444.4553;1444.4553;1444.4553;1444.4553;0;1402
0.116;1650.806058;1857.156815;0;1444.4553;1444.4553;1444.4553;1444.4553;0;1402
0.118;1650.806058;206.3507572;0;1857.156815;1444.4553;1444.4553;1444.4553;0;1402
0.12;1650.806058;1444.4553;0;1857.156815;1444.4553;1444.4553;1444.4553;0;1401
0.122;1650.806058;2063.507572;0;1444.4553;1444.4553;1444.4553;1444.4553;0;1401
0.124;1444.4553;1444.4553;0;1444.4553;1444.4553;1444.4553;1444.4553;0;1401
0.126;1444.4553;825.4030288;0;1238.104543;1444.4553;1444.4553;1444.4553;0;1401
0.128;1444.4553;1238.104543;0;1238.104543;1444.4553;1444.4553;1444.4553;0;1401
0.13;1238.104543;1238.104543;0;1238.104543;1444.4553;1444.4553;1444.4553;0;1400
0.132;1444.4553;1650.806058;0;1444.4553;1444.4553;1444.4553;1444.4553;0;1410
0.134;1444.4553;1857.156815;0;1444.4553;1444.4553;1444.4553;1444.4553;0;1409
0.136;1650.806058;1444.4553;0;1444.4553;1444.4553;1444.4553;1444.4553;0;1408
0.138;1857.156815;1444.4553;0;1444.4553;1444.4553;1444.4553;1444.4553;0;1407
0.14;1650.806058;1444.4553;0;1444.4553;1444.4553;1444.4553;1444.4553;0;1407
0.142;1444.4553;1238.104543;0;1444.4553;1444.4553;1444.4553;1444.4553;0;1406
0.144;1238.104543;1238.104543;0;1444.4553;1444.4553;1444.4553;1444.4553;0;1405
0.146;1444.4553;2063.507572;0;1444.4553;1444.4553;1444.4553;1444.4553;0;1405
0.148;1650.806058;2682.559844;0;1444.4553;1444.4553;1444.4553;1444.4553;0;1404
0.15;1650.806058;1650.806058;0;1444.4553;1444.4553;1444.4553;1444.4553;0;1403
0.152;1444.4553;1238.104543;0;1444.4553;1444.4553;1444.4553;1444.4553;0;1403
0.154;1650.806058;2063.507572;0;1444.4553;1444.4553;1444.4553;1444.4553;0;1403
0.156;1444.4553;412.7015144;0;1444.4553;1444.4553;1444.4553;1444.4553;0;1403
0.158;1857.156815;1857.156815;0;1444.4553;1444.4553;1444.4553;1444.4553;0;1409
0.16;1650.806058;1650.806058;0;1444.4553;1444.4553;1444.4553;1444.4553;0;1409
0.162;1444.4553;2476.209086;0;1444.4553;1650.806058;1650.806058;1650.806058;0;1408
0.164;1238.104543;1444.4553;0;1444.4553;1650.806058;1650.806058;1650.806058;0;1407
0.166;1444.4553;619.0522716;0;1444.4553;1444.4553;1444.4553;1444.4553;0;1406
0.168;1650.806058;1444.4553;0;1444.4553;1444.4553;1444.4553;1444.4553;0;1405
0.17;1650.806058;1238.104543;0;1444.4553;1444.4553;1444.4553;1444.4553;0;1405
0.172;1650.806058;1444.4553;0;1444.4553;1444.4553;1444.4553;1444.4553;0;1405
0.174;1444.4553;1444.4553;0;1650.806058;1444.4553;1444.4553;1444.4553;0;1405
0.176;1444.4553;1857.156815;0;1444.4553;1444.4553;1444.4553;1444.4553;0;1405
0.178;1444.4553;1857.156815;0;1444.4553;1444.4553;1444.4553;1444.4553;0;1405
0.18;1444.4553;2476.209086;0;1444.4553;1650.806058;1650.806058;1650.806058;0;1404
0.182;1650.806058;1650.806058;0;1444.4553;1650.806058;1650.806058;1650.806058;0;1404
0.184;1444.4553;1650.806058;0;1444.4553;1650.806058;1650.806058;1650.806058;0;1407
0.186;1444.4553;825.4030288;0;1650.806058;1444.4553;1444.4553;1444.4553;0;1415
0.188;1444.4553;825.4030288;0;1650.806058;1444.4553;1444.4553;1444.4553;0;1413
0.19;1650.806058;1238.104543;0;1650.806058;1444.4553;1444.4553;1444.4553;0;1412
0.192;1650.806058;1444.4553;0;1650.806058;1444.4553;1444.4553;1444.4553;0;1412
0.194;1444.4553;1444.4553;0;1650.806058;1444.4553;1444.4553;1444.4553;0;1411
0.196;1444.4553;2063.507572;0;1650.806058;1444.4553;1444.4553;1444.4553;0;1410
0.198;1650.806058;2476.209086;0;1444.4553;1650.806058;1650.806058;1650.806058;0;1409
0.2;1650.806058;2476.209086;0;1238.104543;1444.4553;1444.4553;1444.4553;0;1409
0.202;1650.806058;1444.4553;0;1444.4553;1444.4553;1444.4553;1444.4553;0;1408
0.204;1650.806058;412.7015144;0;1444.4553;1444.4553;1444.4553;1444.4553;0;1406
0.206;1650.806058;1444.4553;0;1444.4553;1444.4553;1444.4553;1444.4553;0;1406
0.208;1857.156815;1444.4553;0;1444.4553;1444.4553;1444.4553;1444.4553;0;1405
0.21;1650.806058;2063.507572;0;1444.4553;1650.806058;1650.806058;1650.806058;0;1407
0.212;1650.806058;2476.209086;0;1650.806058;1650.806058;1650.806058;1650.806058;0;1406
0.214;1650.806058;1857.156815;0;1857.156815;1650.806058;1650.806058;1650.806058;0;1406
0.216;1650.806058;412.7015144;0;1444.4553;1650.806058;1650.806058;1650.806058;0;1406
0.218;1650.806058;1031.753786;0;1444.4553;1444.4553;1444.4553;1444.4553;0;1413
0.22;1650.806058;1238.104543;0;1444.4553;1444.4553;1444.4553;1444.4553;0;1412
0.222;1650.806058;1444.4553;0;1650.806058;1444.4553;1444.4553;1444.4553;0;1412
0.224;1650.806058;1650.806058;0;1444.4553;1444.4553;1444.4553;1444.4553;0;1411
0.226;1444.4553;1650.806058;0;1444.4553;1444.4553;1444.4553;1444.4553;0;1410
0.228;1444.4553;2063.507572;0;1650.806058;1650.806058;1650.806058;1650.806058;0;1409
0.23;1650.806058;1857.156815;0;1650.806058;1444.4553;1444.4553;1444.4553;0;1409
0.232;1650.806058;1444.4553;0;1444.4553;1444.4553;1444.4553;1444.4553;0;1408
0.234;1650.806058;2269.858329;0;1444.4553;1444.4553;1444.4553;1444.4553;0;1407
0.236;1650.806058;619.0522716;0;1650.806058;1444.4553;1444.4553;1444.4553;0;1405
0.238;1650.806058;619.0522716;0;1650.806058;1444.4553;1444.4553;1444.4553;0;1405
0.24;1650.806058;1444.4553;0;1238.104543;1444.4553;1444.4553;1444.4553;0;1405
0.242;1444.4553;1857.156815;0;1238.104543;1444.4553;1444.4553;1444.4553;0;1404
0.244;1444.4553;2063.507572;0;1238.104543;1444.4553;1444.4553;1444.4553;0;1405
0.246;1444.4553;1444.4553;0;1444.4553;1444.4553;1444.4553;1444.4553;0;1404
0.248;1444.4553;1444.4553;0;1444.4553;1444.4553;1444.4553;1444.4553;0;1404
0.25;1650.806058;1444.4553;0;1444.4553;1444.4553;1444.4553;1444.4553;0;1404
0.252;1650.806058;1238.104543;0;1444.4553;1444.4553;1444.4553;1444.4553;0;1403
0.254;1444.4553;1650.806058;0;1444.4553;1444.4553;1444.4553;1444.4553;0;1403
0.256;1444.4553;1650.806058;0;1444.4553;1444.4553;1444.4553;1444.4553;0;1403
0.258;1650.806058;1857.156815;0;1444.4553;1444.4553;1444.4553;1444.4553;0;1403
0.26;1650.806058;1444.4553;0;1444.4553;1444.4553;1444.4553;1444.4553;0;1402
0.262;1444.4553;1238.104543;0;1650.806058;1650.806058;1650.806058;1650.806058;0;1401
0.264;1444.4553;1031.753786;0;1857.156815;1444.4553;1444.4553;1444.4553;0;1401
0.266;1650.806058;1031.753786;0;1650.806058;1444.4553;1444.4553;1444.4553;0;1401
0.268;1650.806058;2269.858329;0;1444.4553;1444.4553;1444.4553;1444.4553;0;1402
0.27;1650.806058;2682.559844;0;1650.806058;1444.4553;1444.4553;1444.4553;0;1402
0.272;1650.806058;1650.806058;0;1444.4553;1444.4553;1444.4553;1444.4553;0;1402
0.274;1857.156815;1238.104543;0;1444.4553;1444.4553;1444.4553;1444.4553;0;1402
0.276;1650.806058;1238.104543;0;1444.4553;1444.4553;1444.4553;1444.4553;0;1401
0.278;1444.4553;1031.753786;0;1650.806058;1444.4553;1444.4553;1444.4553;0;1401
0.28;1444.4553;2063.507572;0;1650.806058;1444.4553;1444.4553;1444.4553;0;1401
0.282;1650.806058;2682.559844;0;1444.4553;1444.4553;1444.4553;1444.4553;0;1402
0.284;1650.806058;1650.806058;0;1444.4553;1444.4553;1444.4553;1444.4553;0;1402
0.286;1650.806058;825.4030288;0;1444.4553;1444.4553;1444.4553;1444.4553;0;1402
0.288;1650.806058;2476.209086;0;1650.806058;1444.4553;1444.4553;1444.4553;0;1408
0.29;1650.806058;2063.507572;0;1650.806058;1444.4553;1444.4553;1444.4553;0;1408
0.292;1650.806058;412.7015144;0;1444.4553;1444.4553;1444.4553;1444.4553;0;1408
0.294;1650.806058;1031.753786;0;1444.4553;1444.4553;1444.4553;1444.4553;0;1408
0.296;1650.806058;2269.858329;0;1444.4553;1444.4553;1444.4553;1444.4553;0;1408
0.298;1650.806058;1650.806058;0;1650.806058;1444.4553;1444.4553;1444.4553;0;1408
0.3;1650.806058;1238.104543;0;1650.806058;1444.4553;1444.4553;1444.4553;0;1406
0.302;1650.806058;1238.104543;0;1650.806058;1444.4553;1444.4553;1444.4553;0;1406
0.304;1650.806058;1238.104543;0;1650.806058;1444.4553;1444.4553;1444.4553;0;1406
0.306;1650.806058;1238.104543;0;1650.806058;1444.4553;1444.4553;1444.4553;0;1406
0.308;1444.4553;1444.4553;0;1650.806058;1444.4553;1444.4553;1444.4553;0;1406
0.31;1444.4553;1650.806058;0;1444.4553;1650.806058;1650.806058;1650.806058;0;1406
0.312;1650.806058;1650.806058;0;1444.4553;1444.4553;1444.4553;1444.4553;0;1406
0.314;1650.806058;2269.858329;0;1444.4553;1650.806058;1650.806058;1650.806058;0;1420
0.316;1238.104543;1444.4553;0;1444.4553;1650.806058;1650.806058;1650.806058;0;1419
0.318;1238.104543;1238.104543;0;1444.4553;1650.806058;1650.806058;1650.806058;0;1418
0.32;1444.4553;1857.156815;0;1650.806058;1444.4553;1444.4553;1444.4553;0;1418
0.322;1650.806058;1857.156815;0;1444.4553;1650.806058;1650.806058;1650.806058;0;1418
0.324;1650.806058;1031.753786;0;1650.806058;1444.4553;1444.4553;1444.4553;0;1417
0.326;1650.806058;1650.806058;0;1444.4553;1444.4553;1444.4553;1444.4553;0;1417
0.328;1650.806058;2476.209086;0;1444.4553;1444.4553;1444.4553;1444.4553;0;1416
0.33;1650.806058;1031.753786;0;1444.4553;1444.4553;1444.4553;1444.4553;0;1420
0.332;1650.806058;206.3507572;0;1650.806058;1444.4553;1444.4553;1444.4553;0;1420
0.334;1650.806058;1238.104543;0;1444.4553;1444.4553;1444.4553;1444.4553;0;1419
0.336;1650.806058;1444.4553;0;1444.4553;1444.4553;1444.4553;1444.4553;0;1419
0.338;1650.806058;1650.806058;0;1444.4553;1444.4553;1444.4553;1444.4553;0;1419
0.34;1444.4553;1650.806058;0;1238.104543;1444.4553;1444.4553;1444.4553;0;1424
0.342;1650.806058;1444.4553;0;1238.104543;1444.4553;1444.4553;1444.4553;0;1424
0.344;1857.156815;1857.156815;0;1238.104543;1444.4553;1444.4553;1444.4553;0;1430
0.346;1444.4553;3095.261358;0;1238.104543;1444.4553;1444.4553;1444.4553;0;1429
0.348;1238.104543;1857.156815;0;1238.104543;1444.4553;1444.4553;1444.4553;0;1429
0.35;1238.104543;206.3507572;0;1238.104543;1444.4553;1444.4553;1444.4553;0;1428
0.352;1444.4553;412.7015144;0;1444.4553;1444.4553;1444.4553;1444.4553;0;1428
0.354;1444.4553;1031.753786;0;1444.4553;1444.4553;1444.4553;1444.4553;0;1427
0.356;1650.806058;1238.104543;0;1238.104543;1444.4553;1444.4553;1444.4553;0;1427
0.358;1650.806058;1444.4553;0;1238.104543;1444.4553;1444.4553;1444.4553;0;1427
0.36;1650.806058;1857.156815;0;1238.104543;1444.4553;1444.4553;1444.4553;0;1426
0.362;1650.806058;2476.209086;0;1444.4553;1650.806058;1650.806058;1650.806058;0;1425
0.364;1650.806058;2888.910601;0;1444.4553;1650.806058;1650.806058;1650.806058;0;1425
0.366;1650.806058;1650.806058;0;1650.806058;1444.4553;1444.4553;1444.4553;0;1426
0.368;1650.806058;1650.806058;0;1650.806058;1444.4553;1444.4553;1444.4553;0;1426
0.37;1650.806058;1650.806058;0;1650.806058;1444.4553;1444.4553;1444.4553;0;1426
0.372;1650.806058;2063.507572;0;1650.806058;1444.4553;1444.4553;1444.4553;0;1425
0.374;1444.4553;2476.209086;0;1444.4553;1650.806058;1650.806058;1650.806058;0;1433
0.376;1444.4553;2888.910601;0;1444.4553;1650.806058;1650.806058;1650.806058;0;1432
0.378;1444.4553;1650.806058;0;1444.4553;1444.4553;1444.4553;1444.4553;0;1432
0.38;1444.4553;206.3507572;0;1650.806058;1444.4553;1444.4553;1444.4553;0;1431
0.382;1444.4553;619.0522716;0;1650.806058;1444.4553;1444.4553;1444.4553;0;1431
0.384;1650.806058;1444.4553;0;1650.806058;1444.4553;1444.4553;1444.4553;0;1431
0.386;1650.806058;2063.507572;0;1650.806058;1444.4553;1444.4553;1444.4553;0;1431
0.388;1650.806058;2269.858329;0;1650.806058;1444.4553;1444.4553;1444.4553;0;1430
0.39;1650.806058;1650.806058;0;1444.4553;1444.4553;1444.4553;1444.4553;0;1436
0.392;1444.4553;1238.104543;0;1444.4553;1650.806058;1650.806058;1650.806058;0;1436
0.394;1444.4553;1238.104543;0;1650.806058;1650.806058;1650.806058;1650.806058;0;1436
0.396;1650.806058;1444.4553;0;1650.806058;1650.806058;1650.806058;1650.806058;0;1437
0.398;1650.806058;1444.4553;0;1650.806058;1650.806058;1650.806058;1650.806058;0;1437
0.4;1650.806058;1650.806058;0;1650.806058;1650.806058;1650.806058;1650.806058;0;1437
0.402;1650.806058;1650.806058;0;1650.806058;1650.806058;1650.806058;1650.806058;0;1436
0.404;1650.806058;2063.507572;0;1444.4553;1650.806058;1650.806058;1650.806058;0;1443
0.406;1650.806058;2269.858329;0;1444.4553;1650.806058;1650.806058;1650.806058;0;1443
0.408;1650.806058;2269.858329;0;1238.104543;1650.806058;1650.806058;1650.806058;0;1442
0.41;1650.806058;1031.753786;0;1444.4553;1650.806058;1650.806058;1650.806058;0;1442
0.412;1650.806058;1031.753786;0;1650.806058;1444.4553;1444.4553;1444.4553;0;1442
0.414;1444.4553;2269.858329;0;1650.806058;1650.806058;1650.806058;1650.806058;0;1441
0.416;1444.4553;3095.261358;0;1650.806058;1650.806058;1650.806058;1650.806058;0;1441
0.418;1650.806058;1444.4553;0;1650.806058;1650.806058;1650.806058;1650.806058;0;1439
0.42;1650.806058;1238.104543;0;1650.806058;1650.806058;1650.806058;1650.806058;0;1439
0.422;1650.806058;1857.156815;0;1650.806058;1650.806058;1650.806058;1650.806058;0;1438
0.424;1650.806058;2063.507572;0;1650.806058;1650.806058;1650.806058;1650.806058;0;1441
0.426;1650.806058;1650.806058;0;1650.806058;1650.806058;1650.806058;1650.806058;0;1441
0.428;1650.806058;1650.806058;0;1650.806058;1650.806058;1650.806058;1650.806058;0;1441
0.43;1650.806058;1857.156815;0;1650.806058;1650.806058;1650.806058;1650.806058;0;1440
0.432;1650.806058;2269.858329;0;1650.806058;1650.806058;1650.806058;1650.806058;0;1440
0.434;1650.806058;1650.806058;0;1444.4553;1650.806058;1650.806058;1650.806058;0;1440
0.436;1650.806058;1238.104543;0;1444.4553;1650.806058;1650.806058;1650.806058;0;1440
0.438;1444.4553;1238.104543;0;1650.806058;1650.806058;1650.806058;1650.806058;0;1445
0.44;1444.4553;1031.753786;0;1650.806058;1650.806058;1650.806058;1650.806058;0;1444
0.442;1444.4553;1444.4553;0;1650.806058;1650.806058;1650.806058;1650.806058;0;1443
0.444;1444.4553;1650.806058;0;1650.806058;1650.806058;1650.806058;1650.806058;0;1438
0.446;1444.4553;1650.806058;0;1857.156815;1650.806058;1650.806058;1650.806058;0;1437
0.448;1650.806058;412.7015144;0;1650.806058;1650.806058;1650.806058;1650.806058;0;1437
0.45;1650.806058;825.4030288;0;1650.806058;1650.806058;1650.806058;1650.806058;0;1437
0.452;1650.806058;1444.4553;0;1650.806058;1650.806058;1650.806058;1650.806058;0;1436
0.454;1650.806058;1444.4553;0;1857.156815;1650.806058;1650.806058;1650.806058;0;1436
0.456;1650.806058;2269.858329;0;1857.156815;1650.806058;1650.806058;1650.806058;0;1435
0.458;1650.806058;2476.209086;0;1650.806058;1650.806058;1650.806058;1650.806058;0;1435
0.46;1650.806058;1444.4553;0;1857.156815;1650.806058;1650.806058;1650.806058;0;1435
0.462;1444.4553;1031.753786;0;1857.156815;1650.806058;1650.806058;1650.806058;0;1435
0.464;1444.4553;1650.806058;0;1650.806058;1650.806058;1650.806058;1650.806058;0;1435
0.466;1650.806058;2063.507572;0;1650.806058;1650.806058;1650.806058;1650.806058;0;1434
0.468;1650.806058;1650.806058;0;1650.806058;1650.806058;1650.806058;1650.806058;0;1434
0.47;1444.4553;1650.806058;0;1650.806058;1650.806058;1650.806058;1650.806058;0;1435
0.472;1650.806058;1857.156815;0;1650.806058;1650.806058;1650.806058;1650.806058;0;1436
0.474;1650.806058;1238.104543;0;1650.806058;1650.806058;1650.806058;1650.806058;0;1436
0.476;1650.806058;1031.753786;0;1857.156815;1650.806058;1650.806058;1650.806058;0;1436
0.478;1857.156815;1650.806058;0;1650.806058;1650.806058;1650.806058;1650.806058;0;1436
0.48;1650.806058;2063.507572;0;1650.806058;1650.806058;1650.806058;1650.806058;0;1436
0.482;1444.4553;2269.858329;0;1650.806058;1650.806058;1650.806058;1650.806058;0;1437
0.484;1238.104543;1444.4553;0;1444.4553;1650.806058;1650.806058;1650.806058;0;1437
0.486;1444.4553;1444.4553;0;1444.4553;1650.806058;1650.806058;1650.806058;0;1436
0.488;1650.806058;1238.104543;0;1444.4553;1650.806058;1650.806058;1650.806058;0;1437
0.49;1650.806058;1444.4553;0;1444.4553;1650.806058;1650.806058;1650.806058;0;1437
0.492;1650.806058;1444.4553;0;1444.4553;1444.4553;1444.4553;1444.4553;0;1437
0.494;1444.4553;1444.4553;0;1444.4553;1444.4553;1444.4553;1444.4553;0;1438
0.496;1650.806058;1650.806058;0;1444.4553;1444.4553;1444.4553;1444.4553;0;1461
0.498;1857.156815;1857.156815;0;1650.806058;1444.4553;1444.4553;1444.4553;0;1460
0.5;1650.806058;1857.156815;0;1650.806058;1444.4553;1444.4553;1444.4553;0;1459
0.502;1238.104543;2063.507572;0;1650.806058;1650.806058;1650.806058;1650.806058;0;1459
0.504;1444.4553;1444.4553;0;1444.4553;1650.806058;1650.806058;1650.806058;0;1458
0.506;1444.4553;825.4030288;0;1650.806058;1650.806058;1650.806058;1650.806058;0;1458
0.508;1444.4553;1444.4553;0;1444.4553;1650.806058;1650.806058;1650.806058;0;1458
0.51;1650.806058;1650.806058;0;1444.4553;1650.806058;1650.806058;1650.806058;0;1457
0.512;1650.806058;1444.4553;0;1444.4553;1650.806058;1650.806058;1650.806058;0;1457
0.514;1650.806058;1650.806058;0;1444.4553;1444.4553;1444.4553;1444.4553;0;1457
0.516;1650.806058;2063.507572;0;1444.4553;1444.4553;1444.4553;1444.4553;0;1457
0.518;1650.806058;2063.507572;0;1650.806058;1650.806058;1650.806058;1650.806058;0;1456
0.52;1650.806058;2063.507572;0;1444.4553;1650.806058;1650.806058;1650.806058;0;1456
0.522;1650.806058;2269.858329;0;1444.4553;1444.4553;1444.4553;1444.4553;0;1460
0.524;1650.806058;2269.858329;0;1444.4553;1444.4553;1444.4553;1444.4553;0;1460
0.526;1650.806058;2063.507572;0;1444.4553;1444.4553;1444.4553;1444.4553;0;1459
0.528;1444.4553;1444.4553;0;1444.4553;1444.4553;1444.4553;1444.4553;0;1459
0.53;1444.4553;1031.753786;0;1444.4553;1444.4553;1444.4553;1444.4553;0;1457
0.532;1444.4553;825.4030288;0;1444.4553;1444.4553;1444.4553;1444.4553;0;1457
0.534;1444.4553;1031.753786;0;1650.806058;1444.4553;1444.4553;1444.4553;0;1457
0.536;1650.806058;1444.4553;0;1650.806058;1444.4553;1444.4553;1444.4553;0;1456
0.538;1444.4553;2063.507572;0;1650.806058;1444.4553;1444.4553;1444.4553;0;1456
0.54;1444.4553;2063.507572;0;1444.4553;1444.4553;1444.4553;1444.4553;0;1456
0.542;1444.4553;1650.806058;0;1444.4553;1444.4553;1444.4553;1444.4553;0;1455
0.544;1444.4553;1238.104543;0;1444.4553;1444.4553;1444.4553;1444.4553;0;1455
0.546;1444.4553;825.4030288;0;1444.4553;1444.4553;1444.4553;1444.4553;0;1455
0.548;1650.806058;619.0522716;0;1444.4553;1444.4553;1444.4553;1444.4553;0;1444
0.55;1650.806058;825.4030288;0;1650.806058;1444.4553;1444.4553;1444.4553;0;1443
0.552;1650.806058;1238.104543;0;1650.806058;1444.4553;1444.4553;1444.4553;0;1442
0.554;1650.806058;1444.4553;0;1650.806058;1444.4553;1444.4553;1444.4553;0;1441
0.556;1444.4553;2063.507572;0;1650.806058;1444.4553;1444.4553;1444.4553;0;1448
0.558;1444.4553;2269.858329;0;1650.806058;1444.4553;1444.4553;1444.4553;0;1446
0.56;1444.4553;2888.910601;0;1444.4553;1444.4553;1444.4553;1444.4553;0;1445
0.562;1444.4553;2063.507572;0;1444.4553;1444.4553;1444.4553;1444.4553;0;1444
0.564;1650.806058;206.3507572;0;1650.806058;1444.4553;1444.4553;1444.4553;0;1443
0.566;1444.4553;412.7015144;0;1650.806058;1444.4553;1444.4553;1444.4553;0;1442
0.568;1444.4553;1238.104543;0;1444.4553;1444.4553;1444.4553;1444.4553;0;1441
0.57;1650.806058;1444.4553;0;1650.806058;1444.4553;1444.4553;1444.4553;0;1440
0.572;1650.806058;1650.806058;0;1444.4553;1444.4553;1444.4553;1444.4553;0;1438
0.574;1650.806058;1650.806058;0;1444.4553;1444.4553;1444.4553;1444.4553;0;1436
0.576;1650.806058;1650.806058;0;1444.4553;1444.4553;1444.4553;1444.4553;0;1435
0.578;1650.806058;1650.806058;0;1444.4553;1444.4553;1444.4553;1444.4553;0;1433
0.58;1650.806058;1444.4553;0;1444.4553;1444.4553;1444.4553;1444.4553;0;1432
0.582;1650.806058;2269.858329;0;1444.4553;1444.4553;1444.4553;1444.4553;0;1429
0.584;1444.4553;2269.858329;0;1444.4553;1444.4553;1444.4553;1444.4553;0;1428
0.586;1444.4553;1650.806058;0;1238.104543;1444.4553;1444.4553;1444.4553;0;1428
0.588;1444.4553;1031.753786;0;1444.4553;1444.4553;1444.4553;1444.4553;0;1427
0.59;1650.806058;825.4030288;0;1650.806058;1444.4553;1444.4553;1444.4553;0;1426
0.592;1650.806058;619.0522716;0;1650.806058;1444.4553;1444.4553;1444.4553;0;1426
0.594;1650.806058;1238.104543;0;1444.4553;1444.4553;1444.4553;1444.4553;0;1425
0.596;1650.806058;1444.4553;0;1444.4553;1444.4553;1444.4553;1444.4553;0;1432
0.598;1650.806058;1650.806058;0;1444.4553;1444.4553;1444.4553;1444.4553;0;1431
0.6;1444.4553;1650.806058;0;1444.4553;1444.4553;1444.4553;1444.4553;0;1432
0.602;1444.4553;1238.104543;0;1444.4553;1444.4553;1444.4553;1444.4553;0;1431
0.604;1444.4553;1444.4553;0;1444.4553;1444.4553;1444.4553;1444.4553;0;1430
0.606;1444.4553;1650.806058;0;1444.4553;1444.4553;1444.4553;1444.4553;0;1429
0.608;1444.4553;1650.806058;0;1444.4553;1444.4553;1444.4553;1444.4553;0;1428
0.61;1444.4553;1650.806058;0;1444.4553;1444.4553;1444.4553;1444.4553;0;1427
0.612;1444.4553;1650.806058;0;1444.4553;1444.4553;1444.4553;1444.4553;0;1426
0.614;1444.4553;1650.806058;0;1238.104543;1444.4553;1444.4553;1444.4553;0;1426
0.616;1444.4553;1650.806058;0;1238.104543;1444.4553;1444.4553;1444.4553;0;1425
0.618;1444.4553;1650.806058;0;1444.4553;1444.4553;1444.4553;1444.4553;0;1423
0.62;1444.4553;1444.4553;0;1444.4553;1444.4553;1444.4553;1444.4553;0;1423
0.622;1444.4553;1444.4553;0;1444.4553;1444.4553;1444.4553;1444.4553;0;1423
0.624;1650.806058;1650.806058;0;1444.4553;1444.4553;1444.4553;1444.4553;0;1423
0.626;1650.806058;1444.4553;0;1444.4553;1650.806058;1650.806058;1650.806058;0;1426
0.628;1650.806058;1238.104543;0;1650.806058;1650.806058;1650.806058;1650.806058;0;1425
0.63;1650.806058;1238.104543;0;1444.4553;1650.806058;1650.806058;1650.806058;0;1423
0.632;1650.806058;1650.806058;0;1444.4553;1650.806058;1650.806058;1650.806058;0;1422
0.634;1650.806058;2269.858329;0;1444.4553;1650.806058;1650.806058;1650.806058;0;1422
0.636;1650.806058;2476.209086;0;1650.806058;1650.806058;1650.806058;1650.806058;0;1421
0.638;1650.806058;1857.156815;0;1650.806058;1444.4553;1444.4553;1444.4553;0;1421
0.64;1650.806058;825.4030288;0;1650.806058;1444.4553;1444.4553;1444.4553;0;1421
0.642;1650.806058;1031.753786;0;1650.806058;1444.4553;1444.4553;1444.4553;0;1421
0.644;1650.806058;1238.104543;0;1650.806058;1444.4553;1444.4553;1444.4553;0;1420
0.646;1650.806058;825.4030288;0;1650.806058;1444.4553;1444.4553;1444.4553;0;1420
0.648;1650.806058;1444.4553;0;1650.806058;1444.4553;1444.4553;1444.4553;0;1419
0.65;1650.806058;2269.858329;0;1650.806058;1444.4553;1444.4553;1444.4553;0;1427
0.652;1650.806058;1444.4553;0;1444.4553;1444.4553;1444.4553;1444.4553;0;1421
0.654;1650.806058;1444.4553;0;1444.4553;1444.4553;1444.4553;1444.4553;0;1420
0.656;1650.806058;1650.806058;0;1444.4553;1444.4553;1444.4553;1444.4553;0;1420
0.658;1650.806058;1857.156815;0;1444.4553;1444.4553;1444.4553;1444.4553;0;1420
0.66;1650.806058;1444.4553;0;1444.4553;1444.4553;1444.4553;1444.4553;0;1419
0.662;1650.806058;1444.4553;0;1444.4553;1444.4553;1444.4553;1444.4553;0;1426
0.664;1650.806058;1444.4553;0;1650.806058;1444.4553;1444.4553;1444.4553;0;1425
0.666;1650.806058;1650.806058;0;1650.806058;1444.4553;1444.4553;1444.4553;0;1425
0.668;1650.806058;1650.806058;0;1650.806058;1444.4553;1444.4553;1444.4553;0;1424
0.67;1444.4553;1444.4553;0;1444.4553;1444.4553;1444.4553;1444.4553;0;1423
0.672;1650.806058;1857.156815;0;1238.104543;1444.4553;1444.4553;1444.4553;0;1422
0.674;1650.806058;2888.910601;0;1238.104543;1444.4553;1444.4553;1444.4553;0;1422
0.676;1650.806058;2888.910601;0;1444.4553;1444.4553;1444.4553;1444.4553;0;1421
0.678;1444.4553;1650.806058;0;1650.806058;1650.806058;1650.806058;1650.806058;0;1426
0.68;1650.806058;1650.806058;0;1650.806058;1650.806058;1650.806058;1650.806058;0;1424
0.682;1650.806058;1857.156815;0;1857.156815;1650.806058;1650.806058;1650.806058;0;1424
0.684;1650.806058;1857.156815;0;1857.156815;1650.806058;1650.806058;1650.806058;0;1423
0.686;1650.806058;1857.156815;0;1650.806058;1650.806058;1650.806058;1650.806058;0;1422
0.688;1650.806058;1650.806058;0;1650.806058;1650.806058;1650.806058;1650.806058;0;1422
0.69;1650.806058;1857.156815;0;1444.4553;1650.806058;1650.806058;1650.806058;0;1420
0.692;1650.806058;2888.910601;0;1650.806058;1650.806058;1650.806058;1650.806058;0;1419
0.694;1650.806058;2682.559844;0;1650.806058;1650.806058;1650.806058;1650.806058;0;1418
0.696;1650.806058;1238.104543;0;1650.806058;1650.806058;1650.806058;1650.806058;0;1418
0.698;1650.806058;206.3507572;0;1444.4553;1650.806058;1650.806058;1650.806058;0;1417
0.7;1650.806058;1238.104543;0;1650.806058;1650.806058;1650.806058;1650.806058;0;1416
0.702;1650.806058;2888.910601;0;1650.806058;1650.806058;1650.806058;1650.806058;0;1416
0.704;1650.806058;1650.806058;0;1444.4553;1444.4553;1444.4553;1444.4553;0;1420
0.706;1444.4553;1650.806058;0;1238.104543;1444.4553;1444.4553;1444.4553;0;1419
0.708;1444.4553;1650.806058;0;1238.104543;1444.4553;1444.4553;1444.4553;0;1418
0.71;1444.4553;1650.806058;0;1238.104543;1444.4553;1444.4553;1444.4553;0;1417
0.712;1444.4553;1650.806058;0;1238.104543;1444.4553;1444.4553;1444.4553;0;1417
0.714;1444.4553;1650.806058;0;1444.4553;1444.4553;1444.4553;1444.4553;0;1415
0.716;1444.4553;1650.806058;0;1444.4553;1444.4553;1444.4553;1444.4553;0;1422
0.718;1444.4553;1650.806058;0;1444.4553;1444.4553;1444.4553;1444.4553;0;1421
0.72;1444.4553;1650.806058;0;1650.806058;1444.4553;1444.4553;1444.4553;0;1420
0.722;1444.4553;1650.806058;0;1650.806058;1444.4553;1444.4553;1444.4553;0;1419
0.724;1444.4553;1650.806058;0;1650.806058;1444.4553;1444.4553;1444.4553;0;1418
0.726;1444.4553;1650.806058;0;1650.806058;1444.4553;1444.4553;1444.4553;0;1418
0.728;1650.806058;1650.806058;0;1650.806058;1444.4553;1444.4553;1444.4553;0;1417
0.73;1444.4553;1650.806058;0;1650.806058;1444.4553;1444.4553;1444.4553;0;1415
0.732;1444.4553;1650.806058;0;1444.4553;1444.4553;1444.4553;1444.4553;0;1415
0.734;1444.4553;1857.156815;0;1444.4553;1444.4553;1444.4553;1444.4553;0;1416
0.736;1444.4553;1650.806058;0;1444.4553;1444.4553;1444.4553;1444.4553;0;1415
0.738;1650.806058;1238.104543;0;1444.4553;1444.4553;1444.4553;1444.4553;0;1415
0.74;1444.4553;1238.104543;0;1444.4553;1444.4553;1444.4553;1444.4553;0;1416
0.742;1650.806058;2476.209086;0;1650.806058;1444.4553;1444.4553;1444.4553;0;1416
0.744;1650.806058;3095.261358;0;1650.806058;1444.4553;1444.4553;1444.4553;0;1417
0.746;1650.806058;1857.156815;0;1444.4553;1444.4553;1444.4553;1444.4553;0;1417
0.748;1650.806058;206.3507572;0;1444.4553;1444.4553;1444.4553;1444.4553;0;1417
0.75;1444.4553;1031.753786;0;1650.806058;1444.4553;1444.4553;1444.4553;0;1417
0.752;1650.806058;1238.104543;0;1650.806058;1444.4553;1444.4553;1444.4553;0;1418
0.754;1444.4553;1238.104543;0;1650.806058;1444.4553;1444.4553;1444.4553;0;1418
0.756;1444.4553;1238.104543;0;1650.806058;1444.4553;1444.4553;1444.4553;0;1433
0.758;1444.4553;1444.4553;0;1650.806058;1444.4553;1444.4553;1444.4553;0;1433
0.76;1444.4553;1444.4553;0;1650.806058;1650.806058;1650.806058;1650.806058;0;1432
0.762;1444.4553;1650.806058;0;1650.806058;1650.806058;1650.806058;1650.806058;0;1432
0.764;1650.806058;2682.559844;0;1444.4553;1650.806058;1650.806058;1650.806058;0;1431
0.766;1650.806058;2476.209086;0;1444.4553;1650.806058;1650.806058;1650.806058;0;1431
0.768;1857.156815;1238.104543;0;1444.4553;1650.806058;1650.806058;1650.806058;0;1439
0.77;1650.806058;619.0522716;0;1444.4553;1650.806058;1650.806058;1650.806058;0;1438
0.772;1444.4553;825.4030288;0;1650.806058;1444.4553;1444.4553;1444.4553;0;1437
0.774;1238.104543;1444.4553;0;1857.156815;1444.4553;1444.4553;1444.4553;0;1436
0.776;1238.104543;1444.4553;0;1650.806058;1444.4553;1444.4553;1444.4553;0;1436
0.778;1444.4553;1650.806058;0;1444.4553;1650.806058;1650.806058;1650.806058;0;1435
0.78;1650.806058;1650.806058;0;1444.4553;1650.806058;1650.806058;1650.806058;0;1434
0.782;1238.104543;1238.104543;0;1444.4553;1444.4553;1444.4553;1444.4553;0;1436
0.784;619.0522716;1238.104543;0;1444.4553;1444.4553;1444.4553;1444.4553;0;1435
0.786;619.0522716;619.0522716;0;1444.4553;1444.4553;1444.4553;1444.4553;0;1434
0.788;1031.753786;1650.806058;0;1444.4553;1650.806058;1650.806058;1650.806058;0;1433
0.79;1444.4553;1650.806058;0;1650.806058;1650.806058;1650.806058;1650.806058;0;1432
0.792;1650.806058;1031.753786;0;1444.4553;1650.806058;1650.806058;1650.806058;0;1431
0.794;1650.806058;619.0522716;0;1650.806058;1650.806058;1650.806058;1650.806058;0;1431
0.796;1650.806058;1444.4553;0;1650.806058;1650.806058;1650.806058;1650.806058;0;1430
0.798;1650.806058;2063.507572;0;1444.4553;1650.806058;1650.806058;1650.806058;0;1429
0.8;1857.156815;2063.507572;0;1650.806058;1650.806058;1650.806058;1650.806058;0;1436
0.802;1857.156815;1857.156815;0;1650.806058;1650.806058;1650.806058;1650.806058;0;1435
0.804;1444.4553;1444.4553;0;1444.4553;1650.806058;1650.806058;1650.806058;0;1434
0.806;1238.104543;1650.806058;0;1444.4553;1650.806058;1650.806058;1650.806058;0;1432
0.808;1650.806058;1857.156815;0;1238.104543;1444.4553;1444.4553;1444.4553;0;1425
0.81;1650.806058;412.7015144;0;1238.104543;1444.4553;1444.4553;1444.4553;0;1425
0.812;1857.156815;619.0522716;0;1444.4553;1444.4553;1444.4553;1444.4553;0;1424
0.814;1650.806058;1650.806058;0;1444.4553;1444.4553;1444.4553;1444.4553;0;1432
0.816;1444.4553;1650.806058;0;1444.4553;1444.4553;1444.4553;1444.4553;0;1431
0.818;1238.104543;1857.156815;0;1444.4553;1444.4553;1444.4553;1444.4553;0;1430
0.82;1444.4553;1444.4553;0;1444.4553;1444.4553;1444.4553;1444.4553;0;1430
0.822;1444.4553;1031.753786;0;1444.4553;1444.4553;1444.4553;1444.4553;0;1429
0.824;1444.4553;1238.104543;0;1444.4553;1444.4553;1444.4553;1444.4553;0;1428
0.826;1650.806058;1857.156815;0;1238.104543;1444.4553;1444.4553;1444.4553;0;1428
0.828;1650.806058;1857.156815;0;1031.753786;1444.4553;1444.4553;1444.4553;0;1428
0.83;1650.806058;1238.104543;0;1238.104543;1444.4553;1444.4553;1444.4553;0;1427
0.832;1650.806058;1031.753786;0;1444.4553;1444.4553;1444.4553;1444.4553;0;1426
0.834;1857.156815;1444.4553;0;1444.4553;1444.4553;1444.4553;1444.4553;0;1446
0.836;1650.806058;1031.753786;0;1444.4553;1444.4553;1444.4553;1444.4553;0;1445
0.838;1238.104543;1238.104543;0;1650.806058;1444.4553;1444.4553;1444.4553;0;1445
0.84;1444.4553;1031.753786;0;1650.806058;1444.4553;1444.4553;1444.4553;0;1444
0.842;1650.806058;1031.753786;0;1444.4553;1444.4553;1444.4553;1444.4553;0;1443
0.844;1650.806058;1444.4553;0;1444.4553;1444.4553;1444.4553;1444.4553;0;1443
0.846;1444.4553;1650.806058;0;1444.4553;1444.4553;1444.4553;1444.4553;0;1443
0.848;1444.4553;2063.507572;0;1444.4553;1444.4553;1444.4553;1444.4553;0;1443
0.85;1444.4553;1857.156815;0;1444.4553;1444.4553;1444.4553;1444.4553;0;1444
0.852;1650.806058;2063.507572;0;1444.4553;1444.4553;1444.4553;1444.4553;0;1443
0.854;1650.806058;2269.858329;0;1444.4553;1444.4553;1444.4553;1444.4553;0;1451
0.856;1650.806058;2063.507572;0;1444.4553;1444.4553;1444.4553;1444.4553;0;1451
0.858;1444.4553;619.0522716;0;1444.4553;1444.4553;1444.4553;1444.4553;0;1450
0.86;1444.4553;1857.156815;0;1650.806058;1444.4553;1444.4553;1444.4553;0;1450
0.862;1444.4553;1857.156815;0;1650.806058;1444.4553;1444.4553;1444.4553;0;1449
0.864;1444.4553;1857.156815;0;1444.4553;1444.4553;1444.4553;1444.4553;0;1450
0.866;1444.4553;2682.559844;0;1444.4553;1444.4553;1444.4553;1444.4553;0;1450
0.868;1650.806058;2269.858329;0;1650.806058;1444.4553;1444.4553;1444.4553;0;1450
0.87;1650.806058;825.4030288;0;1444.4553;1444.4553;1444.4553;1444.4553;0;1450
0.872;1444.4553;412.7015144;0;1650.806058;1444.4553;1444.4553;1444.4553;0;1458
0.874;1650.806058;1031.753786;0;1650.806058;1444.4553;1444.4553;1444.4553;0;1458
0.876;1650.806058;825.4030288;0;1650.806058;1444.4553;1444.4553;1444.4553;0;1458
0.878;1650.806058;1650.806058;0;1650.806058;1444.4553;1444.4553;1444.4553;0;1458
0.88;1650.806058;1444.4553;0;1444.4553;1444.4553;1444.4553;1444.4553;0;1457
0.882;1650.806058;1444.4553;0;1444.4553;1444.4553;1444.4553;1444.4553;0;1465
0.884;1650.806058;1444.4553;0;1444.4553;1444.4553;1444.4553;1444.4553;0;1464
0.886;1650.806058;2476.209086;0;1444.4553;1444.4553;1444.4553;1444.4553;0;1462
0.888;1650.806058;1857.156815;0;1444.4553;1444.4553;1444.4553;1444.4553;0;1462
0.89;1650.806058;825.4030288;0;1444.4553;1444.4553;1444.4553;1444.4553;0;1460
0.892;1650.806058;619.0522716;0;1650.806058;1444.4553;1444.4553;1444.4553;0;1461
0.894;1650.806058;1857.156815;0;1650.806058;1444.4553;1444.4553;1444.4553;0;1461
0.896;1650.806058;1444.4553;0;1650.806058;1444.4553;1444.4553;1444.4553;0;1460
0.898;1650.806058;1444.4553;0;1857.156815;1444.4553;1444.4553;1444.4553;0;1461
0.9;1650.806058;1444.4553;0;1650.806058;1444.4553;1444.4553;1444.4553;0;1461
0.902;1650.806058;1444.4553;0;1650.806058;1444.4553;1444.4553;1444.4553;0;1467
0.904;1444.4553;1444.4553;0;1650.806058;1444.4553;1444.4553;1444.4553;0;1467
0.906;1444.4553;1650.806058;0;1444.4553;1444.4553;1444.4553;1444.4553;0;1467
0.908;1650.806058;1857.156815;0;1444.4553;1444.4553;1444.4553;1444.4553;0;1473
0.91;1650.806058;1650.806058;0;1444.4553;1444.4553;1444.4553;1444.4553;0;1471
0.912;1650.806058;1857.156815;0;1444.4553;1444.4553;1444.4553;1444.4553;0;1470
0.914;1650.806058;1857.156815;0;1444.4553;1444.4553;1444.4553;1444.4553;0;1476
0.916;1650.806058;1857.156815;0;1444.4553;1444.4553;1444.4553;1444.4553;0;1476
0.918;1650.806058;2682.559844;0;1650.806058;1650.806058;1650.806058;1650.806058;0;1481
0.92;1650.806058;2682.559844;0;1650.806058;1650.806058;1650.806058;1650.806058;0;1485
0.922;1650.806058;1031.753786;0;1650.806058;1444.4553;1444.4553;1444.4553;0;1489
0.924;1444.4553;412.7015144;0;1650.806058;1444.4553;1444.4553;1444.4553;0;1493
0.926;1444.4553;825.4030288;0;1650.806058;1444.4553;1444.4553;1444.4553;0;1496
0.928;1650.806058;1238.104543;0;1650.806058;1444.4553;1444.4553;1444.4553;0;1499
0.93;1650.806058;1238.104543;0;1444.4553;1444.4553;1444.4553;1444.4553;0;1502
0.932;1650.806058;1238.104543;0;1444.4553;1444.4553;1444.4553;1444.4553;0;1504
0.934;1650.806058;1857.156815;0;1444.4553;1650.806058;1650.806058;1650.806058;0;1507
0.936;1650.806058;2682.559844;0;1444.4553;1650.806058;1650.806058;1650.806058;0;1508
0.938;1444.4553;1031.753786;0;1444.4553;1444.4553;1444.4553;1444.4553;0;1506
0.94;1444.4553;619.0522716;0;1650.806058;1444.4553;1444.4553;1444.4553;0;1508
0.942;1650.806058;1650.806058;0;1650.806058;1444.4553;1444.4553;1444.4553;0;1511
0.944;1650.806058;1650.806058;0;1444.4553;1650.806058;1650.806058;1650.806058;0;1513
0.946;1444.4553;1650.806058;0;1650.806058;1444.4553;1444.4553;1444.4553;0;1514
0.948;1650.806058;1238.104543;0;1857.156815;1444.4553;1444.4553;1444.4553;0;1515
0.95;1650.806058;1238.104543;0;1857.156815;1444.4553;1444.4553;1444.4553;0;1517
0.952;1650.806058;1444.4553;0;1650.806058;1444.4553;1444.4553;1444.4553;0;1519
0.954;1650.806058;1650.806058;0;1444.4553;1444.4553;1444.4553;1444.4553;0;1520
0.956;1650.806058;1857.156815;0;1444.4553;1650.806058;1650.806058;1650.806058;0;1521
0.958;1650.806058;2063.507572;0;1444.4553;1650.806058;1650.806058;1650.806058;0;1522
0.96;1650.806058;2269.858329;0;1444.4553;1650.806058;1650.806058;1650.806058;0;1522
0.962;1650.806058;1444.4553;0;1444.4553;1650.806058;1650.806058;1650.806058;0;1523
0.964;1444.4553;1238.104543;0;1444.4553;1650.806058;1650.806058;1650.806058;0;1518
0.966;1650.806058;1238.104543;0;1444.4553;1444.4553;1444.4553;1444.4553;0;1520
0.968;1650.806058;1650.806058;0;1650.806058;1444.4553;1444.4553;1444.4553;0;1521
0.97;1650.806058;1238.104543;0;1650.806058;1444.4553;1444.4553;1444.4553;0;1521
0.972;1650.806058;1650.806058;0;1444.4553;1650.806058;1650.806058;1650.806058;0;1522
0.974;1444.4553;2269.858329;0;1650.806058;1650.806058;1650.806058;1650.806058;0;1523
0.976;1650.806058;1650.806058;0;1857.156815;1650.806058;1650.806058;1650.806058;0;1523
0.978;1650.806058;825.4030288;0;1857.156815;1650.806058;1650.806058;1650.806058;0;1523
0.98;1650.806058;1444.4553;0;1650.806058;1650.806058;1650.806058;1650.806058;0;1523
0.982;1650.806058;1650.806058;0;1650.806058;1650.806058;1650.806058;1650.806058;0;1523
0.984;1650.806058;1650.806058;0;1444.4553;1650.806058;1650.806058;1650.806058;0;1522
0.986;1650.806058;1650.806058;0;1444.4553;1650.806058;1650.806058;1650.806058;0;1522
0.988;1650.806058;1650.806058;0;1650.806058;1650.806058;1650.806058;1650.806058;0;1522
0.99;1650.806058;1650.806058;0;1444.4553;1650.806058;1650.806058;1650.806058;0;1516
0.992;1650.806058;1650.806058;0;1444.4553;1650.806058;1650.806058;1650.806058;0;1517
0.994;1650.806058;1857.156815;0;1444.4553;1650.806058;1650.806058;1650.806058;0;1518
0.996;1650.806058;1857.156815;0;1650.806058;1650.806058;1650.806058;1650.806058;0;1518
0.998;1650.806058;1650.806058;0;1650.806058;1650.806058;1650.806058;1650.806058;0;1519
1;1650.806058;1650.806058;0;1444.4553;1650.806058;1650.806058;1650.806058;0;1519
1.002;1650.806058;1650.806058;0;1444.4553;1650.806058;1650.806058;1650.806058;0;1519
1.004;1650.806058;1857.156815;0;1650.806058;1444.4553;1444.4553;1444.4553;0;1519
1.006;1650.806058;1444.4553;0;1650.806058;1444.4553;1444.4553;1444.4553;0;1519
1.008;1650.806058;1238.104543;0;1650.806058;1444.4553;1444.4553;1444.4553;0;1518
1.01;1650.806058;2269.858329;0;1650.806058;1444.4553;1444.4553;1444.4553;0;1517
1.012;1650.806058;2269.858329;0;1650.806058;1444.4553;1444.4553;1444.4553;0;1517
1.014;1650.806058;825.4030288;0;1650.806058;1650.806058;1650.806058;1650.806058;0;1517
1.016;1650.806058;825.4030288;0;1650.806058;1650.806058;1650.806058;1650.806058;0;1510
1.018;1650.806058;1444.4553;0;1444.4553;1650.806058;1650.806058;1650.806058;0;1510
1.02;1650.806058;1857.156815;0;1650.806058;1444.4553;1444.4553;1444.4553;0;1510
1.022;1650.806058;2063.507572;0;1650.806058;1444.4553;1444.4553;1444.4553;0;1510
1.024;1650.806058;2063.507572;0;1650.806058;1444.4553;1444.4553;1444.4553;0;1509
1.026;1444.4553;2476.209086;0;1444.4553;1650.806058;1650.806058;1650.806058;0;1509
1.028;1444.4553;1857.156815;0;1444.4553;1650.806058;1650.806058;1650.806058;0;1508
1.03;1444.4553;1031.753786;0;1444.4553;1650.806058;1650.806058;1650.806058;0;1508
1.032;1444.4553;206.3507572;0;1444.4553;1444.4553;1444.4553;1444.4553;0;1507
1.034;1650.806058;1031.753786;0;1650.806058;1444.4553;1444.4553;1444.4553;0;1507
1.036;1650.806058;1444.4553;0;1650.806058;1650.806058;1650.806058;1650.806058;0;1507
1.038;1650.806058;1857.156815;0;1650.806058;1444.4553;1444.4553;1444.4553;0;1506
1.04;1650.806058;1857.156815;0;1650.806058;1444.4553;1444.4553;1444.4553;0;1505
1.042;1650.806058;2269.858329;0;1650.806058;1650.806058;1650.806058;1650.806058;0;1497
1.044;1650.806058;1031.753786;0;1444.4553;1650.806058;1650.806058;1650.806058;0;1497
1.046;1650.806058;825.4030288;0;1650.806058;1650.806058;1650.806058;1650.806058;0;1497
1.048;1650.806058;1650.806058;0;1650.806058;1650.806058;1650.806058;1650.806058;0;1497
1.05;1650.806058;2063.507572;0;1444.4553;1444.4553;1444.4553;1444.4553;0;1497
1.052;1238.104543;1857.156815;0;1444.4553;1650.806058;1650.806058;1650.806058;0;1497
1.054;1238.104543;1238.104543;0;1650.806058;1650.806058;1650.806058;1650.806058;0;1496
1.056;1444.4553;2063.507572;0;1444.4553;1650.806058;1650.806058;1650.806058;0;1496
1.058;1444.4553;2476.209086;0;1650.806058;1650.806058;1650.806058;1650.806058;0;1496
1.06;1650.806058;1238.104543;0;1650.806058;1650.806058;1650.806058;1650.806058;0;1495
1.062;1650.806058;412.7015144;0;1857.156815;1650.806058;1650.806058;1650.806058;0;1495
1.064;1650.806058;825.4030288;0;1650.806058;1444.4553;1444.4553;1444.4553;0;1494
1.066;1650.806058;2269.858329;0;1650.806058;1650.806058;1650.806058;1650.806058;0;1494
1.068;1444.4553;2063.507572;0;1444.4553;1650.806058;1650.806058;1650.806058;0;1487
1.07;1444.4553;1238.104543;0;1444.4553;1650.806058;1650.806058;1650.806058;0;1487
1.072;1444.4553;825.4030288;0;1444.4553;1650.806058;1650.806058;1650.806058;0;1487
1.074;1444.4553;1444.4553;0;1650.806058;1650.806058;1650.806058;1650.806058;0;1487
1.076;1650.806058;2682.559844;0;1444.4553;1650.806058;1650.806058;1650.806058;0;1487
1.078;1650.806058;1857.156815;0;1444.4553;1650.806058;1650.806058;1650.806058;0;1487
1.08;1444.4553;619.0522716;0;1650.806058;1650.806058;1650.806058;1650.806058;0;1487
1.082;1444.4553;619.0522716;0;1650.806058;1650.806058;1650.806058;1650.806058;0;1487
1.084;1650.806058;1238.104543;0;1650.806058;1444.4553;1444.4553;1444.4553;0;1487
1.086;1650.806058;1650.806058;0;1650.806058;1444.4553;1444.4553;1444.4553;0;1487
1.088;1650.806058;1650.806058;0;1650.806058;1650.806058;1650.806058;1650.806058;0;1487
1.09;1650.806058;2269.858329;0;1650.806058;1650.806058;1650.806058;1650.806058;0;1486
1.092;1650.806058;2888.910601;0;1444.4553;1650.806058;1650.806058;1650.806058;0;1486
1.094;1650.806058;825.4030288;0;1650.806058;1650.806058;1650.806058;1650.806058;0;1480
1.096;1650.806058;619.0522716;0;1444.4553;1444.4553;1444.4553;1444.4553;0;1481
1.098;1444.4553;1650.806058;0;1650.806058;1444.4553;1444.4553;1444.4553;0;1481
1.1;1444.4553;2888.910601;0;1650.806058;1650.806058;1650.806058;1650.806058;0;1482
1.102;1444.4553;2476.209086;0;1444.4553;1650.806058;1650.806058;1650.806058;0;1482
1.104;1650.806058;412.7015144;0;1650.806058;1444.4553;1444.4553;1444.4553;0;1482
1.106;1650.806058;0;0;1857.156815;1444.4553;1444.4553;1444.4553;0;1482
1.108;1650.806058;1650.806058;0;1857.156815;1444.4553;1444.4553;1444.4553;0;1482
1.11;1444.4553;2476.209086;0;1444.4553;1650.806058;1650.806058;1650.806058;0;1482
1.112;1444.4553;1650.806058;0;1444.4553;1650.806058;1650.806058;1650.806058;0;1482
1.114;1444.4553;825.4030288;0;1444.4553;1650.806058;1650.806058;1650.806058;0;1481
1.116;1444.4553;1238.104543;0;1650.806058;1650.806058;1650.806058;1650.806058;0;1481
1.118;1444.4553;1857.156815;0;1650.806058;1650.806058;1650.806058;1650.806058;0;1481
1.12;1650.806058;2063.507572;0;1444.4553;1650.806058;1650.806058;1650.806058;0;1474
1.122;1650.806058;1031.753786;0;1444.4553;1650.806058;1650.806058;1650.806058;0;1475
1.124;1444.4553;825.4030288;0;1650.806058;1444.4553;1444.4553;1444.4553;0;1476
1.126;1650.806058;1031.753786;0;1444.4553;1444.4553;1444.4553;1444.4553;0;1476
1.128;1444.4553;1444.4553;0;1444.4553;1650.806058;1650.806058;1650.806058;0;1477
1.13;1444.4553;2269.858329;0;1444.4553;1650.806058;1650.806058;1650.806058;0;1477
1.132;1650.806058;2269.858329;0;1444.4553;1444.4553;1444.4553;1444.4553;0;1477
1.134;1650.806058;1238.104543;0;1444.4553;1444.4553;1444.4553;1444.4553;0;1477
1.136;1650.806058;1238.104543;0;1444.4553;1444.4553;1444.4553;1444.4553;0;1477
1.138;1857.156815;2063.507572;0;1444.4553;1444.4553;1444.4553;1444.4553;0;1478
1.14;1857.156815;2476.209086;0;1444.4553;1444.4553;1444.4553;1444.4553;0;1478
1.142;1444.4553;1857.156815;0;1444.4553;1650.806058;1650.806058;1650.806058;0;1478
1.144;1238.104543;1238.104543;0;1650.806058;1444.4553;1444.4553;1444.4553;0;1478
1.146;1444.4553;1650.806058;0;1650.806058;1444.4553;1444.4553;1444.4553;0;1473
1.148;1444.4553;2063.507572;0;1650.806058;1444.4553;1444.4553;1444.4553;0;1474
1.15;1444.4553;825.4030288;0;1444.4553;1444.4553;1444.4553;1444.4553;0;1475
1.152;1444.4553;619.0522716;0;1650.806058;1650.806058;1650.806058;1650.806058;0;1476
1.154;1444.4553;1857.156815;0;1650.806058;1650.806058;1650.806058;1650.806058;0;1476
1.156;1650.806058;1650.806058;0;1650.806058;1650.806058;1650.806058;1650.806058;0;1477
1.158;1650.806058;1444.4553;0;1857.156815;1650.806058;1650.806058;1650.806058;0;1478
1.16;1650.806058;1650.806058;0;1857.156815;1650.806058;1650.806058;1650.806058;0;1479
1.162;1650.806058;1444.4553;0;1650.806058;1650.806058;1650.806058;1650.806058;0;1479
1.164;1650.806058;1650.806058;0;1650.806058;1650.806058;1650.806058;1650.806058;0;1480
1.166;1650.806058;2269.858329;0;1650.806058;1444.4553;1444.4553;1444.4553;0;1481
1.168;1650.806058;1650.806058;0;1650.806058;1650.806058;1650.806058;1650.806058;0;1481
1.17;1650.806058;1857.156815;0;1650.806058;1444.4553;1444.4553;1444.4553;0;1482
1.172;1650.806058;1031.753786;0;1650.806058;1444.4553;1444.4553;1444.4553;0;1476
1.174;1650.806058;1031.753786;0;1650.806058;1444.4553;1444.4553;1444.4553;0;1477
1.176;1650.806058;1238.104543;0;1650.806058;1444.4553;1444.4553;1444.4553;0;1478
1.178;1650.806058;1031.753786;0;1650.806058;1444.4553;1444.4553;1444.4553;0;1479
1.18;1650.806058;1031.753786;0;1444.4553;1650.806058;1650.806058;1650.806058;0;1480
1.182;1444.4553;1444.4553;0;1444.4553;1650.806058;1650.806058;1650.806058;0;1481
1.184;1444.4553;1650.806058;0;1444.4553;1650.806058;1650.806058;1650.806058;0;1481
1.186;1444.4553;1857.156815;0;1444.4553;1650.806058;1650.806058;1650.806058;0;1481
1.188;1444.4553;2063.507572;0;1650.806058;1650.806058;1650.806058;1650.806058;0;1482
1.19;1444.4553;1857.156815;0;1444.4553;1650.806058;1650.806058;1650.806058;0;1482
1.192;1444.4553;1031.753786;0;1650.806058;1650.806058;1650.806058;1650.806058;0;1483
1.194;1650.806058;1444.4553;0;1444.4553;1650.806058;1650.806058;1650.806058;0;1483
1.196;1650.806058;1650.806058;0;1444.4553;1650.806058;1650.806058;1650.806058;0;1483
1.198;1650.806058;1857.156815;0;1650.806058;1650.806058;1650.806058;1650.806058;0;1478
1.2;1444.4553;1238.104543;0;1650.806058;1444.4553;1444.4553;1444.4553;0;1479
1.202;1444.4553;1650.806058;0;1444.4553;1444.4553;1444.4553;1444.4553;0;1479
1.204;1650.806058;1857.156815;0;1650.806058;1444.4553;1444.4553;1444.4553;0;1480
1.206;1650.806058;1444.4553;0;1650.806058;1650.806058;1650.806058;1650.806058;0;1481
1.208;1650.806058;1031.753786;0;1650.806058;1444.4553;1444.4553;1444.4553;0;1482
1.21;1650.806058;1031.753786;0;1650.806058;1650.806058;1650.806058;1650.806058;0;1482
1.212;1650.806058;1444.4553;0;1650.806058;1650.806058;1650.806058;1650.806058;0;1483
1.214;1650.806058;1857.156815;0;1444.4553;1444.4553;1444.4553;1444.4553;0;1484
1.216;1650.806058;1238.104543;0;1444.4553;1444.4553;1444.4553;1444.4553;0;1484
1.218;1650.806058;1031.753786;0;1650.806058;1444.4553;1444.4553;1444.4553;0;1485
1.22;1650.806058;1444.4553;0;1650.806058;1444.4553;1444.4553;1444.4553;0;1485
1.222;1650.806058;2269.858329;0;1650.806058;1444.4553;1444.4553;1444.4553;0;1486
1.224;1444.4553;619.0522716;0;1444.4553;1650.806058;1650.806058;1650.806058;0;1481
1.226;1650.806058;1031.753786;0;1444.4553;1650.806058;1650.806058;1650.806058;0;1483
1.228;1650.806058;1444.4553;0;1650.806058;1444.4553;1444.4553;1444.4553;0;1484
1.23;1650.806058;1238.104543;0;1650.806058;1444.4553;1444.4553;1444.4553;0;1485
1.232;1650.806058;2063.507572;0;1650.806058;1444.4553;1444.4553;1444.4553;0;1486
1.234;1650.806058;2269.858329;0;1444.4553;1650.806058;1650.806058;1650.806058;0;1487
1.236;1650.806058;1857.156815;0;1444.4553;1444.4553;1444.4553;1444.4553;0;1488
1.238;1444.4553;825.4030288;0;1444.4553;1444.4553;1444.4553;1444.4553;0;1489
1.24;1444.4553;1238.104543;0;1650.806058;1444.4553;1444.4553;1444.4553;0;1490
1.242;1650.806058;2063.507572;0;1650.806058;1444.4553;1444.4553;1444.4553;0;1491
1.244;1650.806058;2476.209086;0;1444.4553;1444.4553;1444.4553;1444.4553;0;1491
1.246;1650.806058;1650.806058;0;1444.4553;1444.4553;1444.4553;1444.4553;0;1492
1.248;1444.4553;825.4030288;0;1650.806058;1444.4553;1444.4553;1444.4553;0;1492
1.25;1650.806058;1031.753786;0;1650.806058;1444.4553;1444.4553;1444.4553;0;1487
1.252;1650.806058;2063.507572;0;1444.4553;1444.4553;1444.4553;1444.4553;0;1489
1.254;1650.806058;2888.910601;0;1444.4553;1650.806058;1650.806058;1650.806058;0;1490
1.256;1650.806058;2682.559844;0;1444.4553;1650.806058;1650.806058;1650.806058;0;1492
1.258;1650.806058;825.4030288;0;1444.4553;1650.806058;1650.806058;1650.806058;0;1493
1.26;1857.156815;619.0522716;0;1650.806058;1444.4553;1444.4553;1444.4553;0;1493
1.262;1650.806058;1444.4553;0;1650.806058;1444.4553;1444.4553;1444.4553;0;1494
1.264;1238.104543;1857.156815;0;1650.806058;1444.4553;1444.4553;1444.4553;0;1495
1.266;1031.753786;1650.806058;0;1444.4553;1650.806058;1650.806058;1650.806058;0;1496
1.268;1238.104543;1650.806058;0;1650.806058;1444.4553;1444.4553;1444.4553;0;1497
1.27;1444.4553;619.0522716;0;1650.806058;1444.4553;1444.4553;1444.4553;0;1497
1.272;1444.4553;619.0522716;0;1444.4553;1650.806058;1650.806058;1650.806058;0;1498
1.274;1650.806058;1238.104543;0;1444.4553;1650.806058;1650.806058;1650.806058;0;1498
1.276;1650.806058;2063.507572;0;1444.4553;1650.806058;1650.806058;1650.806058;0;1493
1.278;1650.806058;2269.858329;0;1650.806058;1650.806058;1650.806058;1650.806058;0;1494
1.28;1650.806058;2063.507572;0;1444.4553;1444.4553;1444.4553;1444.4553;0;1495
1.282;1650.806058;1238.104543;0;1444.4553;1444.4553;1444.4553;1444.4553;0;1496
1.284;1650.806058;825.4030288;0;1444.4553;1650.806058;1650.806058;1650.806058;0;1497
1.286;1650.806058;1238.104543;0;1650.806058;1650.806058;1650.806058;1650.806058;0;1497
1.288;1650.806058;1238.104543;0;1444.4553;1650.806058;1650.806058;1650.806058;0;1497
1.29;1650.806058;1650.806058;0;1650.806058;1650.806058;1650.806058;1650.806058;0;1498
1.292;1650.806058;2476.209086;0;1650.806058;1650.806058;1650.806058;1650.806058;0;1498
1.294;1650.806058;2269.858329;0;1650.806058;1650.806058;1650.806058;1650.806058;0;1499
1.296;1444.4553;1650.806058;0;1444.4553;1444.4553;1444.4553;1444.4553;0;1499
1.298;1444.4553;1857.156815;0;1444.4553;1444.4553;1444.4553;1444.4553;0;1499
1.3;1444.4553;1238.104543;0;1444.4553;1650.806058;1650.806058;1650.806058;0;1500
1.302;1444.4553;1238.104543;0;1444.4553;1444.4553;1444.4553;1444.4553;0;1494
1.304;1650.806058;2063.507572;0;1444.4553;1444.4553;1444.4553;1444.4553;0;1495
1.306;1444.4553;1857.156815;0;1650.806058;1650.806058;1650.806058;1650.806058;0;1496
1.308;1444.4553;1238.104543;0;1650.806058;1650.806058;1650.806058;1650.806058;0;1497
1.31;1650.806058;1857.156815;0;1650.806058;1650.806058;1650.806058;1650.806058;0;1498
1.312;1650.806058;2476.209086;0;1444.4553;1650.806058;1650.806058;1650.806058;0;1498
1.314;1650.806058;1650.806058;0;1650.806058;1444.4553;1444.4553;1444.4553;0;1498
1.316;1444.4553;412.7015144;0;1650.806058;1444.4553;1444.4553;1444.4553;0;1499
1.318;1650.806058;825.4030288;0;1650.806058;1444.4553;1444.4553;1444.4553;0;1499
1.32;1650.806058;1444.4553;0;1650.806058;1444.4553;1444.4553;1444.4553;0;1500
1.322;1650.806058;1857.156815;0;1650.806058;1444.4553;1444.4553;1444.4553;0;1500
1.324;1650.806058;2063.507572;0;1650.806058;1444.4553;1444.4553;1444.4553;0;1500
1.326;1444.4553;2063.507572;0;1444.4553;1650.806058;1650.806058;1650.806058;0;1500
1.328;1444.4553;1444.4553;0;1444.4553;1444.4553;1444.4553;1444.4553;0;1494
1.33;1444.4553;2063.507572;0;1444.4553;1444.4553;1444.4553;1444.4553;0;1495
1.332;1444.4553;2269.858329;0;1444.4553;1650.806058;1650.806058;1650.806058;0;1495
1.334;1444.4553;2269.858329;0;1650.806058;1444.4553;1444.4553;1444.4553;0;1496
1.336;1857.156815;1444.4553;0;1650.806058;1444.4553;1444.4553;1444.4553;0;1497
1.338;1650.806058;412.7015144;0;1650.806058;1444.4553;1444.4553;1444.4553;0;1497
1.34;1650.806058;619.0522716;0;1650.806058;1444.4553;1444.4553;1444.4553;0;1497
1.342;1444.4553;1238.104543;0;1650.806058;1444.4553;1444.4553;1444.4553;0;1498
1.344;1444.4553;1650.806058;0;1650.806058;1444.4553;1444.4553;1444.4553;0;1498
1.346;1444.4553;1650.806058;0;1650.806058;1444.4553;1444.4553;1444.4553;0;1497
1.348;1650.806058;1857.156815;0;1444.4553;1444.4553;1444.4553;1444.4553;0;1497
1.35;1650.806058;1650.806058;0;1650.806058;1650.806058;1650.806058;1650.806058;0;1498
1.352;1650.806058;1444.4553;0;1650.806058;1650.806058;1650.806058;1650.806058;0;1498
1.354;1650.806058;1444.4553;0;1444.4553;1650.806058;1650.806058;1650.806058;0;1491
1.356;1857.156815;1857.156815;0;1444.4553;1650.806058;1650.806058;1650.806058;0;1492
1.358;1857.156815;2269.858329;0;1650.806058;1650.806058;1650.806058;1650.806058;0;1492
1.36;1444.4553;1650.806058;0;1444.4553;1650.806058;1650.806058;1650.806058;0;1493
1.362;1031.753786;1238.104543;0;1650.806058;1650.806058;1650.806058;1650.806058;0;1493
1.364;1444.4553;1650.806058;0;1650.806058;1444.4553;1444.4553;1444.4553;0;1493
1.366;1444.4553;1444.4553;0;1444.4553;1650.806058;1650.806058;1650.806058;0;1494
1.368;1650.806058;1238.104543;0;1444.4553;1650.806058;1650.806058;1650.806058;0;1494
1.37;1650.806058;1238.104543;0;1444.4553;1650.806058;1650.806058;1650.806058;0;1493
1.372;1650.806058;1031.753786;0;1650.806058;1650.806058;1650.806058;1650.806058;0;1493
1.374;1444.4553;1031.753786;0;1650.806058;1444.4553;1444.4553;1444.4553;0;1493
1.376;1650.806058;1444.4553;0;1650.806058;1444.4553;1444.4553;1444.4553;0;1493
1.378;1650.806058;1650.806058;0;1857.156815;1444.4553;1444.4553;1444.4553;0;1492
1.38;1650.806058;3095.261358;0;1444.4553;1650.806058;1650.806058;1650.806058;0;1486
1.382;1650.806058;1444.4553;0;1444.4553;1650.806058;1650.806058;1650.806058;0;1487
1.384;1650.806058;0;0;1650.806058;1444.4553;1444.4553;1444.4553;0;1487
1.386;1650.806058;1031.753786;0;1650.806058;1444.4553;1444.4553;1444.4553;0;1487
1.388;1444.4553;1650.806058;0;1650.806058;1444.4553;1444.4553;1444.4553;0;1487
1.39;1444.4553;2476.209086;0;1650.806058;1444.4553;1444.4553;1444.4553;0;1487
1.392;1444.4553;2269.858329;0;1650.806058;1444.4553;1444.4553;1444.4553;0;1487
1.394;1444.4553;1031.753786;0;1650.806058;1444.4553;1444.4553;1444.4553;0;1486
1.396;1650.806058;1238.104543;0;1650.806058;1444.4553;1444.4553;1444.4553;0;1486
1.398;1650.806058;1031.753786;0;1444.4553;1444.4553;1444.4553;1444.4553;0;1486
1.4;1650.806058;1238.104543;0;1650.806058;1444.4553;1444.4553;1444.4553;0;1485
1.402;1650.806058;2063.507572;0;1444.4553;1650.806058;1650.806058;1650.806058;0;1485
1.404;1650.806058;3095.261358;0;1444.4553;1650.806058;1650.806058;1650.806058;0;1484
1.406;1444.4553;1238.104543;0;1444.4553;1650.806058;1650.806058;1650.806058;0;1483
1.408;1650.806058;206.3507572;0;1444.4553;1444.4553;1444.4553;1444.4553;0;1477
1.41;1650.806058;1238.104543;0;1650.806058;1444.4553;1444.4553;1444.4553;0;1477
1.412;1650.806058;1857.156815;0;1650.806058;1444.4553;1444.4553;1444.4553;0;1477
1.414;1650.806058;1444.4553;0;1444.4553;1444.4553;1444.4553;1444.4553;0;1477
1.416;1444.4553;825.4030288;0;1650.806058;1444.4553;1444.4553;1444.4553;0;1476
1.418;1650.806058;1857.156815;0;1444.4553;1444.4553;1444.4553;1444.4553;0;1476
1.42;1650.806058;1857.156815;0;1444.4553;1650.806058;1650.806058;1650.806058;0;1475
1.422;1650.806058;825.4030288;0;1650.806058;1650.806058;1650.806058;1650.806058;0;1475
1.424;1650.806058;1444.4553;0;1650.806058;1650.806058;1650.806058;1650.806058;0;1475
1.426;1650.806058;2063.507572;0;1650.806058;1650.806058;1650.806058;1650.806058;0;1474
1.428;1650.806058;1650.806058;0;1650.806058;1444.4553;1444.4553;1444.4553;0;1474
1.43;1444.4553;1031.753786;0;1650.806058;1444.4553;1444.4553;1444.4553;0;1474
1.432;1444.4553;2682.559844;0;1650.806058;1444.4553;1444.4553;1444.4553;0;1467
1.434;1650.806058;1857.156815;0;1444.4553;1444.4553;1444.4553;1444.4553;0;1467
1.436;1444.4553;619.0522716;0;1650.806058;1444.4553;1444.4553;1444.4553;0;1468
1.438;1650.806058;2063.507572;0;1650.806058;1650.806058;1650.806058;1650.806058;0;1468
1.44;1857.156815;1857.156815;0;1444.4553;1650.806058;1650.806058;1650.806058;0;1468
1.442;1650.806058;1031.753786;0;1444.4553;1444.4553;1444.4553;1444.4553;0;1467
1.444;1238.104543;1031.753786;0;1444.4553;1444.4553;1444.4553;1444.4553;0;1467
1.446;1238.104543;1444.4553;0;1444.4553;1444.4553;1444.4553;1444.4553;0;1467
1.448;1444.4553;1650.806058;0;1444.4553;1444.4553;1444.4553;1444.4553;0;1467
1.45;1650.806058;2063.507572;0;1444.4553;1650.806058;1650.806058;1650.806058;0;1467
1.452;1650.806058;2476.209086;0;1444.4553;1650.806058;1650.806058;1650.806058;0;1466
1.454;1650.806058;1857.156815;0;1444.4553;1444.4553;1444.4553;1444.4553;0;1466
1.456;1650.806058;1031.753786;0;1444.4553;1444.4553;1444.4553;1444.4553;0;1465
1.458;1444.4553;1031.753786;0;1650.806058;1444.4553;1444.4553;1444.4553;0;1458
1.46;1650.806058;1031.753786;0;1650.806058;1444.4553;1444.4553;1444.4553;0;1459
1.462;1650.806058;1857.156815;0;1444.4553;1444.4553;1444.4553;1444.4553;0;1460
1.464;1650.806058;2682.559844;0;1444.4553;1444.4553;1444.4553;1444.4553;0;1460
1.466;1650.806058;2476.209086;0;1444.4553;1650.806058;1650.806058;1650.806058;0;1460
1.468;1650.806058;1444.4553;0;1444.4553;1650.806058;1650.806058;1650.806058;0;1460
1.47;1650.806058;1031.753786;0;1444.4553;1444.4553;1444.4553;1444.4553;0;1460
1.472;1444.4553;1031.753786;0;1444.4553;1444.4553;1444.4553;1444.4553;0;1461
1.474;1444.4553;825.4030288;0;1650.806058;1444.4553;1444.4553;1444.4553;0;1461
1.476;1444.4553;1238.104543;0;1650.806058;1444.4553;1444.4553;1444.4553;0;1461
1.478;1650.806058;1650.806058;0;1650.806058;1444.4553;1444.4553;1444.4553;0;1461
1.48;1650.806058;1857.156815;0;1444.4553;1444.4553;1444.4553;1444.4553;0;1460
1.482;1650.806058;1444.4553;0;1444.4553;1444.4553;1444.4553;1444.4553;0;1460
1.484;1444.4553;1857.156815;0;1650.806058;1444.4553;1444.4553;1444.4553;0;1455
1.486;1650.806058;2269.858329;0;1444.4553;1444.4553;1444.4553;1444.4553;0;1456
1.488;1650.806058;2682.559844;0;1444.4553;1444.4553;1444.4553;1444.4553;0;1456
1.49;1650.806058;2476.209086;0;1444.4553;1444.4553;1444.4553;1444.4553;0;1456
1.492;1444.4553;1444.4553;0;1650.806058;1444.4553;1444.4553;1444.4553;0;1457
1.494;1444.4553;1444.4553;0;1444.4553;1444.4553;1444.4553;1444.4553;0;1457
1.496;1444.4553;825.4030288;0;1650.806058;1444.4553;1444.4553;1444.4553;0;1457
1.498;1650.806058;619.0522716;0;1650.806058;1444.4553;1444.4553;1444.4553;0;1457
1.5;1650.806058;1238.104543;0;1444.4553;1444.4553;1444.4553;1444.4553;0;1458
1.502;1650.806058;1238.104543;0;1444.4553;1444.4553;1444.4553;1444.4553;0;1458
1.504;1650.806058;1857.156815;0;1444.4553;1444.4553;1444.4553;1444.4553;0;1458
1.506;1650.806058;2063.507572;0;1444.4553;1444.4553;1444.4553;1444.4553;0;1457
1.508;1444.4553;1650.806058;0;1444.4553;1444.4553;1444.4553;1444.4553;0;1457
1.51;1444.4553;1650.806058;0;1444.4553;1444.4553;1444.4553;1444.4553;0;1451
1.512;1650.806058;1444.4553;0;1444.4553;1444.4553;1444.4553;1444.4553;0;1452
1.514;1444.4553;825.4030288;0;1650.806058;1444.4553;1444.4553;1444.4553;0;1453
1.516;1650.806058;825.4030288;0;1650.806058;1444.4553;1444.4553;1444.4553;0;1453
1.518;1650.806058;1444.4553;0;1650.806058;1650.806058;1650.806058;1650.806058;0;1453
1.52;1444.4553;1857.156815;0;1650.806058;1650.806058;1650.806058;1650.806058;0;1454
1.522;1650.806058;1857.156815;0;1650.806058;1444.4553;1444.4553;1444.4553;0;1454
1.524;1650.806058;1238.104543;0;1650.806058;1444.4553;1444.4553;1444.4553;0;1454
1.526;1650.806058;1650.806058;0;1650.806058;1650.806058;1650.806058;1650.806058;0;1454
1.528;1650.806058;1857.156815;0;1857.156815;1650.806058;1650.806058;1650.806058;0;1454
1.53;1650.806058;1650.806058;0;1650.806058;1650.806058;1650.806058;1650.806058;0;1454
1.532;1650.806058;2269.858329;0;1650.806058;1650.806058;1650.806058;1650.806058;0;1454
1.534;1444.4553;3095.261358;0;1650.806058;1650.806058;1650.806058;1650.806058;0;1454
1.536;1650.806058;619.0522716;0;1857.156815;1650.806058;1650.806058;1650.806058;0;1449
1.538;1857.156815;2063.507572;0;1857.156815;1650.806058;1650.806058;1650.806058;0;1449
1.54;1650.806058;2063.507572;0;1857.156815;1650.806058;1650.806058;1650.806058;0;1450
1.542;1444.4553;825.4030288;0;2063.507572;1650.806058;1650.806058;1650.806058;0;1451
1.544;1444.4553;1238.104543;0;1857.156815;1650.806058;1650.806058;1650.806058;0;1452
1.546;1444.4553;1857.156815;0;1857.156815;1650.806058;1650.806058;1650.806058;0;1452
1.548;1650.806058;1857.156815;0;1857.156815;1650.806058;1650.806058;1650.806058;0;1452
1.55;1650.806058;2269.858329;0;1857.156815;1650.806058;1650.806058;1650.806058;0;1453
1.552;1650.806058;2682.559844;0;2063.507572;1650.806058;1650.806058;1650.806058;0;1453
1.554;1650.806058;1444.4553;0;1857.156815;1650.806058;1650.806058;1650.806058;0;1453
1.556;1444.4553;412.7015144;0;2063.507572;1650.806058;1650.806058;1650.806058;0;1453
1.558;1650.806058;1444.4553;0;2063.507572;1650.806058;1650.806058;1650.806058;0;1454
1.56;1650.806058;1444.4553;0;2063.507572;1650.806058;1650.806058;1650.806058;0;1454
1.562;1650.806058;1857.156815;0;2063.507572;1650.806058;1650.806058;1650.806058;0;1448
1.564;1857.156815;2063.507572;0;1857.156815;1650.806058;1650.806058;1650.806058;0;1449
1.566;1650.806058;2063.507572;0;2063.507572;1650.806058;1650.806058;1650.806058;0;1449
1.568;1650.806058;1650.806058;0;2063.507572;1650.806058;1650.806058;1650.806058;0;1450
1.57;1650.806058;1650.806058;0;2063.507572;1650.806058;1650.806058;1650.806058;0;1450
1.572;1650.806058;1857.156815;0;2063.507572;1650.806058;1650.806058;1650.806058;0;1450
1.574;1650.806058;2682.559844;0;2063.507572;1650.806058;1650.806058;1650.806058;0;1451
1.576;1650.806058;2682.559844;0;2063.507572;1650.806058;1650.806058;1650.806058;0;1451
1.578;1650.806058;1238.104543;0;1857.156815;1650.806058;1650.806058;1650.806058;0;1451
1.58;1650.806058;1238.104543;0;1857.156815;1650.806058;1650.806058;1650.806058;0;1452
1.582;1650.806058;2063.507572;0;1857.156815;1650.806058;1650.806058;1650.806058;0;1452
1.584;1650.806058;1650.806058;0;1857.156815;1650.806058;1650.806058;1650.806058;0;1452
1.586;1650.806058;1238.104543;0;1857.156815;1650.806058;1650.806058;1650.806058;0;1452
1.588;1650.806058;1444.4553;0;2063.507572;1650.806058;1650.806058;1650.806058;0;1446
1.59;1650.806058;1650.806058;0;1857.156815;1650.806058;1650.806058;1650.806058;0;1447
1.592;1650.806058;1031.753786;0;1857.156815;1650.806058;1650.806058;1650.806058;0;1448
1.594;1650.806058;619.0522716;0;2063.507572;1650.806058;1650.806058;1650.806058;0;1449
1.596;1650.806058;1650.806058;0;1857.156815;1650.806058;1650.806058;1650.806058;0;1449
1.598;1650.806058;2063.507572;0;1857.156815;1650.806058;1650.806058;1650.806058;0;1450
1.6;1650.806058;2476.209086;0;1857.156815;1650.806058;1650.806058;1650.806058;0;1450
1.602;1650.806058;2269.858329;0;1857.156815;1650.806058;1650.806058;1650.806058;0;1451
1.604;1650.806058;1650.806058;0;1857.156815;1650.806058;1650.806058;1650.806058;0;1451
1.606;1650.806058;1650.806058;0;1857.156815;1650.806058;1650.806058;1650.806058;0;1452
1.608;1650.806058;1857.156815;0;1650.806058;1650.806058;1650.806058;1650.806058;0;1452
1.61;1650.806058;1444.4553;0;1857.156815;1650.806058;1650.806058;1650.806058;0;1452
1.612;1650.806058;1444.4553;0;1857.156815;1650.806058;1650.806058;1650.806058;0;1452
1.614;1650.806058;1444.4553;0;1857.156815;1650.806058;1650.806058;1650.806058;0;1446
1.616;1650.806058;2063.507572;0;1650.806058;1650.806058;1650.806058;1650.806058;0;1447
1.618;1650.806058;2269.858329;0;1650.806058;1650.806058;1650.806058;1650.806058;0;1448
1.62;1444.4553;1650.806058;0;1650.806058;1650.806058;1650.806058;1650.806058;0;1448
1.622;1444.4553;1444.4553;0;1857.156815;1650.806058;1650.806058;1650.806058;0;1449
1.624;1444.4553;1857.156815;0;1857.156815;1650.806058;1650.806058;1650.806058;0;1450
1.626;1444.4553;1650.806058;0;1857.156815;1650.806058;1650.806058;1650.806058;0;1450
1.628;1650.806058;2063.507572;0;1857.156815;1650.806058;1650.806058;1650.806058;0;1450
1.63;1650.806058;2269.858329;0;1650.806058;1650.806058;1650.806058;1650.806058;0;1451
1.632;1857.156815;2063.507572;0;1650.806058;1650.806058;1650.806058;1650.806058;0;1451
1.634;1857.156815;2682.559844;0;1857.156815;1650.806058;1650.806058;1650.806058;0;1452
1.636;1444.4553;1031.753786;0;1857.156815;1650.806058;1650.806058;1650.806058;0;1452
1.638;1444.4553;206.3507572;0;1857.156815;1444.4553;1444.4553;1444.4553;0;1452
1.64;1650.806058;1650.806058;0;1650.806058;1650.806058;1650.806058;1650.806058;0;1452
1.642;1650.806058;2063.507572;0;1650.806058;1650.806058;1650.806058;1650.806058;0;1445
1.644;1650.806058;1444.4553;0;1650.806058;1650.806058;1650.806058;1650.806058;0;1447
1.646;1650.806058;1238.104543;0;1444.4553;1650.806058;1650.806058;1650.806058;0;1448
1.648;1650.806058;2476.209086;0;1444.4553;1650.806058;1650.806058;1650.806058;0;1449
1.65;1650.806058;1857.156815;0;1650.806058;1650.806058;1650.806058;1650.806058;0;1449
1.652;1650.806058;1031.753786;0;1650.806058;1650.806058;1650.806058;1650.806058;0;1449
1.654;1444.4553;1238.104543;0;1650.806058;1444.4553;1444.4553;1444.4553;0;1450
1.656;1650.806058;1444.4553;0;1650.806058;1444.4553;1444.4553;1444.4553;0;1450
1.658;1650.806058;1238.104543;0;1650.806058;1444.4553;1444.4553;1444.4553;0;1450
1.66;1650.806058;1238.104543;0;1650.806058;1444.4553;1444.4553;1444.4553;0;1451
1.662;1650.806058;1444.4553;0;1650.806058;1444.4553;1444.4553;1444.4553;0;1451
1.664;1650.806058;2063.507572;0;1650.806058;1444.4553;1444.4553;1444.4553;0;1451
1.666;1650.806058;2269.858329;0;1650.806058;1444.4553;1444.4553;1444.4553;0;1446
1.668;1650.806058;1857.156815;0;1444.4553;1444.4553;1444.4553;1444.4553;0;1440
1.67;1650.806058;1650.806058;0;1650.806058;1444.4553;1444.4553;1444.4553;0;1442
1.672;1444.4553;619.0522716;0;1650.806058;1444.4553;1444.4553;1444.4553;0;1444
1.674;1650.806058;619.0522716;0;1650.806058;1444.4553;1444.4553;1444.4553;0;1445
1.676;1650.806058;1238.104543;0;1650.806058;1444.4553;1444.4553;1444.4553;0;1446
1.678;1650.806058;1650.806058;0;1444.4553;1444.4553;1444.4553;1444.4553;0;1446
1.68;1650.806058;2269.858329;0;1444.4553;1444.4553;1444.4553;1444.4553;0;1447
1.682;1650.806058;2269.858329;0;1650.806058;1650.806058;1650.806058;1650.806058;0;1448
1.684;1650.806058;1857.156815;0;1444.4553;1444.4553;1444.4553;1444.4553;0;1449
1.686;1650.806058;1238.104543;0;1444.4553;1444.4553;1444.4553;1444.4553;0;1449
1.688;1444.4553;1031.753786;0;1650.806058;1444.4553;1444.4553;1444.4553;0;1449
1.69;1444.4553;1238.104543;0;1444.4553;1444.4553;1444.4553;1444.4553;0;1450
1.692;1444.4553;825.4030288;0;1444.4553;1444.4553;1444.4553;1444.4553;0;1444
1.694;1650.806058;1650.806058;0;1444.4553;1444.4553;1444.4553;1444.4553;0;1445
1.696;1650.806058;1650.806058;0;1444.4553;1444.4553;1444.4553;1444.4553;0;1446
1.698;1444.4553;1857.156815;0;1238.104543;1444.4553;1444.4553;1444.4553;0;1447
1.7;1650.806058;1857.156815;0;1444.4553;1444.4553;1444.4553;1444.4553;0;1448
1.702;1444.4553;1650.806058;0;1444.4553;1444.4553;1444.4553;1444.4553;0;1449
1.704;1444.4553;1444.4553;0;1444.4553;1444.4553;1444.4553;1444.4553;0;1449
1.706;1444.4553;1444.4553;0;1444.4553;1444.4553;1444.4553;1444.4553;0;1450
1.708;1650.806058;1650.806058;0;1650.806058;1444.4553;1444.4553;1444.4553;0;1450
1.71;1650.806058;1238.104543;0;1650.806058;1444.4553;1444.4553;1444.4553;0;1451
1.712;1650.806058;1238.104543;0;1650.806058;1444.4553;1444.4553;1444.4553;0;1451
1.714;1444.4553;1444.4553;0;1444.4553;1444.4553;1444.4553;1444.4553;0;1452
1.716;1444.4553;1650.806058;0;1444.4553;1444.4553;1444.4553;1444.4553;0;1452
1.718;1650.806058;2682.559844;0;1444.4553;1650.806058;1650.806058;1650.806058;0;1446
1.72;1650.806058;3095.261358;0;1238.104543;1650.806058;1650.806058;1650.806058;0;1448
1.722;1444.4553;2063.507572;0;1238.104543;1444.4553;1444.4553;1444.4553;0;1449
1.724;1650.806058;206.3507572;0;1444.4553;1444.4553;1444.4553;1444.4553;0;1449
1.726;1857.156815;206.3507572;0;1444.4553;1444.4553;1444.4553;1444.4553;0;1450
1.728;1650.806058;1031.753786;0;1238.104543;1444.4553;1444.4553;1444.4553;0;1450
1.73;1238.104543;1238.104543;0;1238.104543;1444.4553;1444.4553;1444.4553;0;1451
1.732;1238.104543;1650.806058;0;1238.104543;1444.4553;1444.4553;1444.4553;0;1451
1.734;1444.4553;1650.806058;0;1238.104543;1444.4553;1444.4553;1444.4553;0;1452
1.736;1444.4553;825.4030288;0;1238.104543;1444.4553;1444.4553;1444.4553;0;1452
1.738;1444.4553;1238.104543;0;1238.104543;1444.4553;1444.4553;1444.4553;0;1452
1.74;1444.4553;1444.4553;0;1238.104543;1444.4553;1444.4553;1444.4553;0;1453
1.742;1444.4553;1650.806058;0;1238.104543;1444.4553;1444.4553;1444.4553;0;1453
1.744;1444.4553;1444.4553;0;1444.4553;1444.4553;1444.4553;1444.4553;0;1447
1.746;1650.806058;1444.4553;0;1444.4553;1444.4553;1444.4553;1444.4553;0;1448
1.748;1444.4553;2476.209086;0;1444.4553;1444.4553;1444.4553;1444.4553;0;1449
1.75;1650.806058;2269.858329;0;1444.4553;1650.806058;1650.806058;1650.806058;0;1449
1.752;1444.4553;1031.753786;0;1444.4553;1444.4553;1444.4553;1444.4553;0;1450
1.754;1444.4553;1031.753786;0;1650.806058;1444.4553;1444.4553;1444.4553;0;1451
1.756;1650.806058;1444.4553;0;1650.806058;1444.4553;1444.4553;1444.4553;0;1451
1.758;1444.4553;1444.4553;0;1444.4553;1444.4553;1444.4553;1444.4553;0;1452
1.76;1444.4553;2063.507572;0;1650.806058;1444.4553;1444.4553;1444.4553;0;1452
1.762;1444.4553;3095.261358;0;1444.4553;1650.806058;1650.806058;1650.806058;0;1452
1.764;1650.806058;2888.910601;0;1444.4553;1650.806058;1650.806058;1650.806058;0;1453
1.766;1650.806058;825.4030288;0;1444.4553;1444.4553;1444.4553;1444.4553;0;1453
1.768;1650.806058;0;0;1650.806058;1444.4553;1444.4553;1444.4553;0;1453
1.77;1650.806058;1238.104543;0;1444.4553;1444.4553;1444.4553;1444.4553;0;1447
1.772;1650.806058;1650.806058;0;1444.4553;1444.4553;1444.4553;1444.4553;0;1448
1.774;1444.4553;1444.4553;0;1444.4553;1444.4553;1444.4553;1444.4553;0;1449
1.776;1444.4553;1031.753786;0;1444.4553;1444.4553;1444.4553;1444.4553;0;1449
1.778;1444.4553;1238.104543;0;1444.4553;1444.4553;1444.4553;1444.4553;0;1450
1.78;1444.4553;1650.806058;0;1444.4553;1444.4553;1444.4553;1444.4553;0;1450
1.782;1444.4553;1857.156815;0;1444.4553;1444.4553;1444.4553;1444.4553;0;1451
1.784;1444.4553;2269.858329;0;1444.4553;1444.4553;1444.4553;1444.4553;0;1451
1.786;1444.4553;1444.4553;0;1444.4553;1444.4553;1444.4553;1444.4553;0;1451
1.788;1444.4553;412.7015144;0;1444.4553;1444.4553;1444.4553;1444.4553;0;1452
1.79;1444.4553;1238.104543;0;1444.4553;1444.4553;1444.4553;1444.4553;0;1452
1.792;1444.4553;1650.806058;0;1444.4553;1444.4553;1444.4553;1444.4553;0;1452
1.794;1650.806058;1650.806058;0;1238.104543;1444.4553;1444.4553;1444.4553;0;1453
1.796;1650.806058;1650.806058;0;1238.104543;1444.4553;1444.4553;1444.4553;0;1446
1.798;1650.806058;1444.4553;0;1238.104543;1444.4553;1444.4553;1444.4553;0;1447
1.8;1444.4553;1238.104543;0;1238.104543;1444.4553;1444.4553;1444.4553;0;1448
1.802;1444.4553;1238.104543;0;1444.4553;1444.4553;1444.4553;1444.4553;0;1449
1.804;1650.806058;1857.156815;0;1444.4553;1444.4553;1444.4553;1444.4553;0;1449
1.806;1444.4553;1650.806058;0;1444.4553;1444.4553;1444.4553;1444.4553;0;1450
1.808;1444.4553;1238.104543;0;1444.4553;1444.4553;1444.4553;1444.4553;0;1450
1.81;1444.4553;1444.4553;0;1444.4553;1444.4553;1444.4553;1444.4553;0;1451
1.812;1444.4553;2269.858329;0;1238.104543;1444.4553;1444.4553;1444.4553;0;1451
1.814;1444.4553;3095.261358;0;1238.104543;1444.4553;1444.4553;1444.4553;0;1451
1.816;1444.4553;3095.261358;0;1238.104543;1650.806058;1650.806058;1650.806058;0;1451
1.818;1444.4553;825.4030288;0;1238.104543;1444.4553;1444.4553;1444.4553;0;1451
1.82;1444.4553;0;0;1444.4553;1444.4553;1444.4553;1444.4553;0;1451
1.822;1650.806058;1238.104543;0;1444.4553;1444.4553;1444.4553;1444.4553;0;1446
1.824;1857.156815;1238.104543;0;1444.4553;1444.4553;1444.4553;1444.4553;0;1447
1.826;1650.806058;2063.507572;0;1444.4553;1444.4553;1444.4553;1444.4553;0;1448
1.828;1444.4553;2682.559844;0;1444.4553;1444.4553;1444.4553;1444.4553;0;1448
1.83;1238.104543;2269.858329;0;1238.104543;1650.806058;1650.806058;1650.806058;0;1449
1.832;1238.104543;619.0522716;0;1444.4553;1444.4553;1444.4553;1444.4553;0;1450
1.834;1444.4553;412.7015144;0;1238.104543;1444.4553;1444.4553;1444.4553;0;1450
1.836;1444.4553;1031.753786;0;1444.4553;1444.4553;1444.4553;1444.4553;0;1450
1.838;1650.806058;1857.156815;0;1650.806058;1444.4553;1444.4553;1444.4553;0;1451
1.84;1650.806058;2476.209086;0;1650.806058;1444.4553;1444.4553;1444.4553;0;1451
1.842;1444.4553;2063.507572;0;1444.4553;1444.4553;1444.4553;1444.4553;0;1452
1.844;1444.4553;619.0522716;0;1444.4553;1444.4553;1444.4553;1444.4553;0;1452
1.846;1650.806058;1650.806058;0;1444.4553;1444.4553;1444.4553;1444.4553;0;1452
1.848;1444.4553;1238.104543;0;1444.4553;1444.4553;1444.4553;1444.4553;0;1446
1.85;1650.806058;825.4030288;0;1444.4553;1444.4553;1444.4553;1444.4553;0;1446
1.852;1444.4553;1031.753786;0;1444.4553;1444.4553;1444.4553;1444.4553;0;1447
1.854;1444.4553;1031.753786;0;1444.4553;1444.4553;1444.4553;1444.4553;0;1448
1.856;1650.806058;1857.156815;0;1444.4553;1444.4553;1444.4553;1444.4553;0;1448
1.858;1650.806058;2269.858329;0;1444.4553;1444.4553;1444.4553;1444.4553;0;1449
1.86;1650.806058;1857.156815;0;1444.4553;1444.4553;1444.4553;1444.4553;0;1449
1.862;1444.4553;825.4030288;0;1444.4553;1444.4553;1444.4553;1444.4553;0;1450
1.864;1444.4553;1444.4553;0;1444.4553;1650.806058;1650.806058;1650.806058;0;1450
1.866;1444.4553;1650.806058;0;1650.806058;1444.4553;1444.4553;1444.4553;0;1450
1.868;1444.4553;1444.4553;0;1650.806058;1444.4553;1444.4553;1444.4553;0;1450
1.87;1444.4553;1444.4553;0;1444.4553;1444.4553;1444.4553;1444.4553;0;1451
1.872;1444.4553;1857.156815;0;1444.4553;1444.4553;1444.4553;1444.4553;0;1451
1.874;1444.4553;1238.104543;0;1444.4553;1444.4553;1444.4553;1444.4553;0;1445
1.876;1444.4553;1650.806058;0;1444.4553;1444.4553;1444.4553;1444.4553;0;1447
1.878;1444.4553;2269.858329;0;1444.4553;1444.4553;1444.4553;1444.4553;0;1447
1.88;1444.4553;1650.806058;0;1444.4553;1444.4553;1444.4553;1444.4553;0;1448
1.882;1444.4553;825.4030288;0;1444.4553;1444.4553;1444.4553;1444.4553;0;1449
1.884;1650.806058;825.4030288;0;1444.4553;1444.4553;1444.4553;1444.4553;0;1450
1.886;1444.4553;1031.753786;0;1444.4553;1444.4553;1444.4553;1444.4553;0;1450
1.888;1444.4553;1238.104543;0;1444.4553;1444.4553;1444.4553;1444.4553;0;1451
1.89;1444.4553;1650.806058;0;1444.4553;1444.4553;1444.4553;1444.4553;0;1451
1.892;1444.4553;2063.507572;0;1238.104543;1444.4553;1444.4553;1444.4553;0;1451
1.894;1444.4553;2063.507572;0;1444.4553;1444.4553;1444.4553;1444.4553;0;1451
1.896;1650.806058;1650.806058;0;1444.4553;1444.4553;1444.4553;1444.4553;0;1452
1.898;1650.806058;1857.156815;0;1650.806058;1444.4553;1444.4553;1444.4553;0;1452
1.9;1650.806058;825.4030288;0;1444.4553;1444.4553;1444.4553;1444.4553;0;1446
1.902;1650.806058;412.7015144;0;1444.4553;1444.4553;1444.4553;1444.4553;0;1447
1.904;1444.4553;1238.104543;0;1444.4553;1444.4553;1444.4553;1444.4553;0;1448
1.906;1444.4553;1238.104543;0;1650.806058;1444.4553;1444.4553;1444.4553;0;1449
1.908;1444.4553;1444.4553;0;1444.4553;1444.4553;1444.4553;1444.4553;0;1449
1.91;1650.806058;1857.156815;0;1444.4553;1650.806058;1650.806058;1650.806058;0;1450
1.912;1650.806058;2063.507572;0;1444.4553;1650.806058;1650.806058;1650.806058;0;1450
1.914;1444.4553;1650.806058;0;1238.104543;1650.806058;1650.806058;1650.806058;0;1451
1.916;1444.4553;1444.4553;0;1444.4553;1444.4553;1444.4553;1444.4553;0;1451
1.918;1444.4553;1444.4553;0;1444.4553;1444.4553;1444.4553;1444.4553;0;1451
1.92;1650.806058;1650.806058;0;1650.806058;1444.4553;1444.4553;1444.4553;0;1452
1.922;1857.156815;1238.104543;0;1444.4553;1444.4553;1444.4553;1444.4553;0;1452
1.924;1650.806058;1238.104543;0;1444.4553;1444.4553;1444.4553;1444.4553;0;1452
1.926;1238.104543;2063.507572;0;1444.4553;1444.4553;1444.4553;1444.4553;0;1446
1.928;1444.4553;2682.559844;0;1444.4553;1444.4553;1444.4553;1444.4553;0;1447
1.93;1650.806058;1444.4553;0;1444.4553;1444.4553;1444.4553;1444.4553;0;1448
1.932;1444.4553;1238.104543;0;1650.806058;1650.806058;1650.806058;1650.806058;0;1449
1.934;1650.806058;1031.753786;0;1650.806058;1444.4553;1444.4553;1444.4553;0;1449
1.936;1650.806058;1031.753786;0;1444.4553;1444.4553;1444.4553;1444.4553;0;1450
1.938;1650.806058;825.4030288;0;1650.806058;1444.4553;1444.4553;1444.4553;0;1450
1.94;1650.806058;1031.753786;0;1650.806058;1444.4553;1444.4553;1444.4553;0;1451
1.942;1650.806058;1444.4553;0;1444.4553;1444.4553;1444.4553;1444.4553;0;1451
1.944;1444.4553;1650.806058;0;1444.4553;1444.4553;1444.4553;1444.4553;0;1452
1.946;1650.806058;2269.858329;0;1444.4553;1650.806058;1650.806058;1650.806058;0;1452
1.948;1650.806058;3095.261358;0;1238.104543;1650.806058;1650.806058;1650.806058;0;1452
1.95;1650.806058;2476.209086;0;1444.4553;1650.806058;1650.806058;1650.806058;0;1453
1.952;1650.806058;825.4030288;0;1857.156815;1444.4553;1444.4553;1444.4553;0;1447
1.954;1650.806058;619.0522716;0;1650.806058;1444.4553;1444.4553;1444.4553;0;1448
1.956;1444.4553;619.0522716;0;1650.806058;1444.4553;1444.4553;1444.4553;0;1448
1.958;1444.4553;1444.4553;0;1444.4553;1444.4553;1444.4553;1444.4553;0;1449
1.96;1444.4553;1444.4553;0;1444.4553;1444.4553;1444.4553;1444.4553;0;1450
1.962;1444.4553;1444.4553;0;1444.4553;1650.806058;1650.806058;1650.806058;0;1450
1.964;1444.4553;1650.806058;0;1444.4553;1444.4553;1444.4553;1444.4553;0;1451
1.966;1444.4553;2063.507572;0;1444.4553;1650.806058;1650.806058;1650.806058;0;1451
1.968;1444.4553;1857.156815;0;1444.4553;1650.806058;1650.806058;1650.806058;0;1451
1.97;1650.806058;1650.806058;0;1650.806058;1444.4553;1444.4553;1444.4553;0;1452
1.972;1650.806058;1444.4553;0;1444.4553;1444.4553;1444.4553;1444.4553;0;1452
1.974;1650.806058;825.4030288;0;1650.806058;1444.4553;1444.4553;1444.4553;0;1453
1.976;1650.806058;1031.753786;0;1444.4553;1444.4553;1444.4553;1444.4553;0;1453
1.978;1650.806058;1444.4553;0;1444.4553;1444.4553;1444.4553;1444.4553;0;1447
1.98;1650.806058;1650.806058;0;1238.104543;1444.4553;1444.4553;1444.4553;0;1448
1.982;1444.4553;2682.559844;0;1444.4553;1650.806058;1650.806058;1650.806058;0;1449
1.984;1444.4553;2682.559844;0;1238.104543;1650.806058;1650.806058;1650.806058;0;1450
1.986;1444.4553;1650.806058;0;1444.4553;1650.806058;1650.806058;1650.806058;0;1450
1.988;1444.4553;412.7015144;0;1650.806058;1444.4553;1444.4553;1444.4553;0;1451
1.99;1444.4553;1031.753786;0;1650.806058;1444.4553;1444.4553;1444.4553;0;1451
1.992;1650.806058;1238.104543;0;1444.4553;1444.4553;1444.4553;1444.4553;0;1451
1.994;1650.806058;1857.156815;0;1444.4553;1444.4553;1444.4553;1444.4553;0;1451
1.996;1650.806058;2269.858329;0;1444.4553;1650.806058;1650.806058;1650.806058;0;1452
1.998;1650.806058;2269.858329;0;1444.4553;1650.806058;1650.806058;1650.806058;0;1452
2;1650.806058;1444.4553;0;1444.4553;1650.806058;1650.806058;1650.806058;0;1452
2.002;1650.806058;1238.104543;0;1444.4553;1650.806058;1650.806058;1650.806058;0;1452
2.004;1444.4553;1238.104543;0;1444.4553;1444.4553;1444.4553;1444.4553;0;1447
2.006;1444.4553;1031.753786;0;1444.4553;1444.4553;1444.4553;1444.4553;0;1448
2.008;1444.4553;1238.104543;0;1444.4553;1444.4553;1444.4553;1444.4553;0;1448
2.01;1444.4553;1857.156815;0;1444.4553;1444.4553;1444.4553;1444.4553;0;1448
2.012;1444.4553;2682.559844;0;1444.4553;1650.806058;1650.806058;1650.806058;0;1449
2.014;1444.4553;2063.507572;0;1650.806058;1650.806058;1650.806058;1650.806058;0;1450
2.016;1444.4553;1031.753786;0;1444.4553;1650.806058;1650.806058;1650.806058;0;1450
2.018;1444.4553;2269.858329;0;1444.4553;1650.806058;1650.806058;1650.806058;0;1451
2.02;1444.4553;1444.4553;0;1444.4553;1650.806058;1650.806058;1650.806058;0;1451
2.022;1650.806058;619.0522716;0;1650.806058;1444.4553;1444.4553;1444.4553;0;1451
2.024;1650.806058;619.0522716;0;1650.806058;1444.4553;1444.4553;1444.4553;0;1451
2.026;1650.806058;1031.753786;0;1650.806058;1444.4553;1444.4553;1444.4553;0;1452
2.028;1857.156815;1444.4553;0;1650.806058;1444.4553;1444.4553;1444.4553;0;1452
2.03;1444.4553;1444.4553;0;1444.4553;1444.4553;1444.4553;1444.4553;0;1446
2.032;1238.104543;1650.806058;0;1444.4553;1444.4553;1444.4553;1444.4553;0;1447
2.034;1238.104543;1650.806058;0;1444.4553;1444.4553;1444.4553;1444.4553;0;1448
2.036;1444.4553;1650.806058;0;1444.4553;1650.806058;1650.806058;1650.806058;0;1449
2.038;1444.4553;1857.156815;0;1444.4553;1650.806058;1650.806058;1650.806058;0;1450
2.04;1650.806058;2063.507572;0;1444.4553;1650.806058;1650.806058;1650.806058;0;1450
2.042;1650.806058;2269.858329;0;1444.4553;1650.806058;1650.806058;1650.806058;0;1451
2.044;1650.806058;1857.156815;0;1444.4553;1650.806058;1650.806058;1650.806058;0;1451
2.046;1650.806058;2063.507572;0;1650.806058;1444.4553;1444.4553;1444.4553;0;1451
2.048;1650.806058;2269.858329;0;1444.4553;1650.806058;1650.806058;1650.806058;0;1452
2.05;1650.806058;2063.507572;0;1444.4553;1650.806058;1650.806058;1650.806058;0;1452
2.052;1444.4553;1238.104543;0;1444.4553;1444.4553;1444.4553;1444.4553;0;1452
2.054;1444.4553;412.7015144;0;1238.104543;1444.4553;1444.4553;1444.4553;0;1452
2.056;1650.806058;2269.858329;0;1444.4553;1444.4553;1444.4553;1444.4553;0;1446
2.058;1650.806058;1238.104543;0;1444.4553;1444.4553;1444.4553;1444.4553;0;1447
2.06;1650.806058;0;0;1444.4553;1444.4553;1444.4553;1444.4553;0;1448
2.062;1650.806058;1238.104543;0;1444.4553;1444.4553;1444.4553;1444.4553;0;1449
2.064;1444.4553;619.0522716;0;1444.4553;1444.4553;1444.4553;1444.4553;0;1449
2.066;1444.4553;1031.753786;0;1650.806058;1444.4553;1444.4553;1444.4553;0;1449
2.068;1650.806058;1444.4553;0;1650.806058;1444.4553;1444.4553;1444.4553;0;1450
2.07;1650.806058;1857.156815;0;1650.806058;1444.4553;1444.4553;1444.4553;0;1450
2.072;1650.806058;2063.507572;0;1444.4553;1650.806058;1650.806058;1650.806058;0;1450
2.074;1650.806058;1650.806058;0;1444.4553;1444.4553;1444.4553;1444.4553;0;1451
2.076;1444.4553;1444.4553;0;1444.4553;1444.4553;1444.4553;1444.4553;0;1451
2.078;1444.4553;1857.156815;0;1444.4553;1444.4553;1444.4553;1444.4553;0;1452
2.08;1444.4553;2063.507572;0;1444.4553;1650.806058;1650.806058;1650.806058;0;1452
2.082;1444.4553;1238.104543;0;1444.4553;1444.4553;1444.4553;1444.4553;0;1446
2.084;1444.4553;1238.104543;0;1444.4553;1444.4553;1444.4553;1444.4553;0;1447
2.086;1444.4553;1444.4553;0;1444.4553;1444.4553;1444.4553;1444.4553;0;1448
2.088;1650.806058;1650.806058;0;1650.806058;1444.4553;1444.4553;1444.4553;0;1448
2.09;1650.806058;1650.806058;0;1444.4553;1444.4553;1444.4553;1444.4553;0;1449
2.092;1650.806058;1650.806058;0;1444.4553;1444.4553;1444.4553;1444.4553;0;1450
2.094;1650.806058;2063.507572;0;1444.4553;1444.4553;1444.4553;1444.4553;0;1450
2.096;1650.806058;2476.209086;0;1650.806058;1444.4553;1444.4553;1444.4553;0;1450
2.098;1650.806058;1650.806058;0;1650.806058;1444.4553;1444.4553;1444.4553;0;1450
2.1;1650.806058;1031.753786;0;1650.806058;1444.4553;1444.4553;1444.4553;0;1450
2.102;1444.4553;1650.806058;0;1444.4553;1444.4553;1444.4553;1444.4553;0;1450
2.104;1650.806058;2063.507572;0;1444.4553;1444.4553;1444.4553;1444.4553;0;1450
2.106;1650.806058;1031.753786;0;1650.806058;1444.4553;1444.4553;1444.4553;0;1451
2.108;1444.4553;1857.156815;0;1444.4553;1444.4553;1444.4553;1444.4553;0;1445
2.11;1650.806058;2063.507572;0;1444.4553;1444.4553;1444.4553;1444.4553;0;1446
2.112;1444.4553;1857.156815;0;1444.4553;1650.806058;1650.806058;1650.806058;0;1447
2.114;1444.4553;1650.806058;0;1650.806058;1444.4553;1444.4553;1444.4553;0;1448
2.116;1650.806058;1857.156815;0;1650.806058;1444.4553;1444.4553;1444.4553;0;1448
2.118;1650.806058;1238.104543;0;1444.4553;1650.806058;1650.806058;1650.806058;0;1448
2.12;1444.4553;206.3507572;0;1444.4553;1444.4553;1444.4553;1444.4553;0;1448
2.122;1444.4553;825.4030288;0;1444.4553;1444.4553;1444.4553;1444.4553;0;1449
2.124;1650.806058;1857.156815;0;1650.806058;1444.4553;1444.4553;1444.4553;0;1449
2.126;1650.806058;2476.209086;0;1857.156815;1444.4553;1444.4553;1444.4553;0;1449
2.128;1650.806058;2476.209086;0;1650.806058;1444.4553;1444.4553;1444.4553;0;1449
2.13;1650.806058;1857.156815;0;1238.104543;1444.4553;1444.4553;1444.4553;0;1449
2.132;1444.4553;1857.156815;0;1238.104543;1444.4553;1444.4553;1444.4553;0;1449
2.134;1650.806058;1238.104543;0;1650.806058;1444.4553;1444.4553;1444.4553;0;1444
2.136;1650.806058;412.7015144;0;1444.4553;1444.4553;1444.4553;1444.4553;0;1445
2.138;1444.4553;825.4030288;0;1444.4553;1444.4553;1444.4553;1444.4553;0;1446
2.14;1650.806058;1857.156815;0;1444.4553;1650.806058;1650.806058;1650.806058;0;1446
2.142;1444.4553;1650.806058;0;1444.4553;1650.806058;1650.806058;1650.806058;0;1446
2.144;1444.4553;1031.753786;0;1444.4553;1444.4553;1444.4553;1444.4553;0;1447
2.146;1444.4553;1238.104543;0;1650.806058;1444.4553;1444.4553;1444.4553;0;1447
2.148;1444.4553;2269.858329;0;1444.4553;1444.4553;1444.4553;1444.4553;0;1447
2.15;1444.4553;2063.507572;0;1444.4553;1650.806058;1650.806058;1650.806058;0;1448
2.152;1650.806058;619.0522716;0;1650.806058;1444.4553;1444.4553;1444.4553;0;1448
2.154;1650.806058;1444.4553;0;1650.806058;1444.4553;1444.4553;1444.4553;0;1448
2.156;1650.806058;2063.507572;0;1444.4553;1444.4553;1444.4553;1444.4553;0;1449
2.158;1650.806058;1238.104543;0;1444.4553;1444.4553;1444.4553;1444.4553;0;1449
2.16;1650.806058;1650.806058;0;1444.4553;1444.4553;1444.4553;1444.4553;0;1443
2.162;1650.806058;1857.156815;0;1444.4553;1444.4553;1444.4553;1444.4553;0;1443
2.164;1650.806058;1444.4553;0;1650.806058;1444.4553;1444.4553;1444.4553;0;1445
2.166;1444.4553;2063.507572;0;1650.806058;1444.4553;1444.4553;1444.4553;0;1445
2.168;1444.4553;2269.858329;0;1650.806058;1650.806058;1650.806058;1650.806058;0;1446
2.17;1650.806058;1444.4553;0;1650.806058;1650.806058;1650.806058;1650.806058;0;1447
2.172;1650.806058;1238.104543;0;1650.806058;1650.806058;1650.806058;1650.806058;0;1446
2.174;1857.156815;1444.4553;0;1444.4553;1444.4553;1444.4553;1444.4553;0;1447
2.176;1650.806058;825.4030288;0;1444.4553;1650.806058;1650.806058;1650.806058;0;1447
2.178;1444.4553;1238.104543;0;1444.4553;1444.4553;1444.4553;1444.4553;0;1447
2.18;1238.104543;1650.806058;0;1444.4553;1444.4553;1444.4553;1444.4553;0;1447
2.182;1238.104543;1650.806058;0;1444.4553;1444.4553;1444.4553;1444.4553;0;1448
2.184;1444.4553;1857.156815;0;1444.4553;1650.806058;1650.806058;1650.806058;0;1448
2.186;1444.4553;2269.858329;0;1444.4553;1650.806058;1650.806058;1650.806058;0;1442
2.188;1650.806058;1238.104543;0;1444.4553;1444.4553;1444.4553;1444.4553;0;1444
2.19;1650.806058;619.0522716;0;1650.806058;1444.4553;1444.4553;1444.4553;0;1445
2.192;1650.806058;825.4030288;0;1650.806058;1444.4553;1444.4553;1444.4553;0;1446
2.194;1444.4553;1238.104543;0;1650.806058;1444.4553;1444.4553;1444.4553;0;1446
2.196;1444.4553;1444.4553;0;1444.4553;1444.4553;1444.4553;1444.4553;0;1446
2.198;1650.806058;1444.4553;0;1650.806058;1444.4553;1444.4553;1444.4553;0;1447
2.2;1444.4553;1857.156815;0;1650.806058;1444.4553;1444.4553;1444.4553;0;1447
2.202;1650.806058;2269.858329;0;1444.4553;1650.806058;1650.806058;1650.806058;0;1447
2.204;1650.806058;2063.507572;0;1444.4553;1650.806058;1650.806058;1650.806058;0;1447
2.206;1650.806058;2063.507572;0;1444.4553;1650.806058;1650.806058;1650.806058;0;1447
2.208;1650.806058;2269.858329;0;1444.4553;1444.4553;1444.4553;1444.4553;0;1447
2.21;1650.806058;1857.156815;0;1650.806058;1444.4553;1444.4553;1444.4553;0;1447
2.212;1650.806058;412.7015144;0;1650.806058;1650.806058;1650.806058;1650.806058;0;1441
2.214;1650.806058;1857.156815;0;1650.806058;1650.806058;1650.806058;1650.806058;0;1442
2.216;1650.806058;1857.156815;0;1650.806058;1650.806058;1650.806058;1650.806058;0;1436
2.218;1650.806058;619.0522716;0;1650.806058;1444.4553;1444.4553;1444.4553;0;1438
2.22;1444.4553;1238.104543;0;1650.806058;1650.806058;1650.806058;1650.806058;0;1439
2.222;1444.4553;2476.209086;0;1444.4553;1650.806058;1650.806058;1650.806058;0;1441
2.224;1444.4553;1857.156815;0;1444.4553;1444.4553;1444.4553;1444.4553;0;1441
2.226;1650.806058;619.0522716;0;1650.806058;1444.4553;1444.4553;1444.4553;0;1442
2.228;1650.806058;206.3507572;0;1857.156815;1444.4553;1444.4553;1444.4553;0;1443
2.23;1444.4553;1857.156815;0;1650.806058;1444.4553;1444.4553;1444.4553;0;1443
2.232;1444.4553;2682.559844;0;1650.806058;1444.4553;1444.4553;1444.4553;0;1444
2.234;1650.806058;2269.858329;0;1444.4553;1444.4553;1444.4553;1444.4553;0;1444
2.236;1650.806058;2063.507572;0;1444.4553;1444.4553;1444.4553;1444.4553;0;1444
2.238;1444.4553;206.3507572;0;1444.4553;1444.4553;1444.4553;1444.4553;0;1439
2.24;1650.806058;0;0;1444.4553;1444.4553;1444.4553;1444.4553;0;1440
2.242;1650.806058;825.4030288;0;1650.806058;1444.4553;1444.4553;1444.4553;0;1440
2.244;1650.806058;1238.104543;0;1444.4553;1444.4553;1444.4553;1444.4553;0;1441
2.246;1444.4553;1238.104543;0;1650.806058;1444.4553;1444.4553;1444.4553;0;1441
2.248;1650.806058;1650.806058;0;1444.4553;1444.4553;1444.4553;1444.4553;0;1442
2.25;1650.806058;1650.806058;0;1650.806058;1444.4553;1444.4553;1444.4553;0;1442
2.252;1650.806058;1857.156815;0;1444.4553;1444.4553;1444.4553;1444.4553;0;1443
2.254;1444.4553;1857.156815;0;1444.4553;1650.806058;1650.806058;1650.806058;0;1443
2.256;1650.806058;1857.156815;0;1444.4553;1650.806058;1650.806058;1650.806058;0;1444
2.258;1857.156815;1857.156815;0;1444.4553;1650.806058;1650.806058;1650.806058;0;1445
2.26;1650.806058;1650.806058;0;1444.4553;1650.806058;1650.806058;1650.806058;0;1446
2.262;1238.104543;1650.806058;0;1444.4553;1650.806058;1650.806058;1650.806058;0;1446
2.264;1444.4553;1650.806058;0;1444.4553;1650.806058;1650.806058;1650.806058;0;1441
2.266;1444.4553;1650.806058;0;1444.4553;1444.4553;1444.4553;1444.4553;0;1442
2.268;1650.806058;1650.806058;0;1650.806058;1444.4553;1444.4553;1444.4553;0;1442
2.27;1650.806058;1650.806058;0;1650.806058;1444.4553;1444.4553;1444.4553;0;1442
2.272;1650.806058;1650.806058;0;1650.806058;1444.4553;1444.4553;1444.4553;0;1443
2.274;1650.806058;1650.806058;0;1650.806058;1444.4553;1444.4553;1444.4553;0;1444
2.276;1650.806058;1650.806058;0;1650.806058;1444.4553;1444.4553;1444.4553;0;1444
2.278;1650.806058;2063.507572;0;1650.806058;1650.806058;1650.806058;1650.806058;0;1444
2.28;1650.806058;2063.507572;0;1650.806058;1650.806058;1650.806058;1650.806058;0;1444
2.282;1650.806058;2063.507572;0;1444.4553;1650.806058;1650.806058;1650.806058;0;1444
2.284;1650.806058;1650.806058;0;1444.4553;1444.4553;1444.4553;1444.4553;0;1444
2.286;1650.806058;1444.4553;0;1444.4553;1444.4553;1444.4553;1444.4553;0;1445
2.288;1650.806058;619.0522716;0;1650.806058;1444.4553;1444.4553;1444.4553;0;1445
2.29;1650.806058;1238.104543;0;1650.806058;1444.4553;1444.4553;1444.4553;0;1439
2.292;1650.806058;1444.4553;0;1444.4553;1444.4553;1444.4553;1444.4553;0;1441
2.294;1650.806058;2269.858329;0;1444.4553;1444.4553;1444.4553;1444.4553;0;1442
2.296;1650.806058;2888.910601;0;1444.4553;1650.806058;1650.806058;1650.806058;0;1442
2.298;1650.806058;2476.209086;0;1444.4553;1650.806058;1650.806058;1650.806058;0;1442
2.3;1650.806058;825.4030288;0;1444.4553;1444.4553;1444.4553;1444.4553;0;1443
2.302;1650.806058;825.4030288;0;1444.4553;1444.4553;1444.4553;1444.4553;0;1443
2.304;1650.806058;2269.858329;0;1444.4553;1444.4553;1444.4553;1444.4553;0;1444
2.306;1444.4553;1650.806058;0;1444.4553;1444.4553;1444.4553;1444.4553;0;1444
2.308;1650.806058;412.7015144;0;1650.806058;1444.4553;1444.4553;1444.4553;0;1444
2.31;1650.806058;0;0;1650.806058;1444.4553;1444.4553;1444.4553;0;1444
2.312;1444.4553;825.4030288;0;1650.806058;1444.4553;1444.4553;1444.4553;0;1444
2.314;1444.4553;1650.806058;0;1650.806058;1444.4553;1444.4553;1444.4553;0;1444
2.316;1444.4553;1650.806058;0;1444.4553;1444.4553;1444.4553;1444.4553;0;1438
2.318;1650.806058;2063.507572;0;1444.4553;1444.4553;1444.4553;1444.4553;0;1439
2.32;1650.806058;1857.156815;0;1650.806058;1444.4553;1444.4553;1444.4553;0;1440
2.322;1650.806058;1650.806058;0;1650.806058;1444.4553;1444.4553;1444.4553;0;1440
2.324;1650.806058;1650.806058;0;1650.806058;1444.4553;1444.4553;1444.4553;0;1440
2.326;1650.806058;1857.156815;0;1444.4553;1444.4553;1444.4553;1444.4553;0;1440
2.328;1650.806058;1857.156815;0;1444.4553;1444.4553;1444.4553;1444.4553;0;1440
2.33;1650.806058;1444.4553;0;1444.4553;1650.806058;1650.806058;1650.806058;0;1440
2.332;1444.4553;1031.753786;0;1444.4553;1444.4553;1444.4553;1444.4553;0;1441
2.334;1444.4553;1857.156815;0;1444.4553;1650.806058;1650.806058;1650.806058;0;1441
2.336;1650.806058;2269.858329;0;1444.4553;1650.806058;1650.806058;1650.806058;0;1441
2.338;1650.806058;1031.753786;0;1650.806058;1444.4553;1444.4553;1444.4553;0;1441
2.34;1650.806058;1444.4553;0;1650.806058;1444.4553;1444.4553;1444.4553;0;1442
2.342;1444.4553;1857.156815;0;1444.4553;1650.806058;1650.806058;1650.806058;0;1436
2.344;1444.4553;206.3507572;0;1444.4553;1444.4553;1444.4553;1444.4553;0;1436
2.346;1650.806058;825.4030288;0;1444.4553;1444.4553;1444.4553;1444.4553;0;1437
2.348;1650.806058;412.7015144;0;1444.4553;1650.806058;1650.806058;1650.806058;0;1437
2.35;1444.4553;1238.104543;0;1650.806058;1650.806058;1650.806058;1650.806058;0;1438
2.352;1444.4553;1444.4553;0;1650.806058;1444.4553;1444.4553;1444.4553;0;1439
2.354;1444.4553;1444.4553;0;1444.4553;1444.4553;1444.4553;1444.4553;0;1438
2.356;1444.4553;2269.858329;0;1444.4553;1444.4553;1444.4553;1444.4553;0;1439
2.358;1444.4553;3095.261358;0;1444.4553;1444.4553;1444.4553;1444.4553;0;1439
2.36;1444.4553;1857.156815;0;1444.4553;1444.4553;1444.4553;1444.4553;0;1440
2.362;1444.4553;412.7015144;0;1444.4553;1444.4553;1444.4553;1444.4553;0;1440
2.364;1444.4553;825.4030288;0;1238.104543;1444.4553;1444.4553;1444.4553;0;1440
2.366;1650.806058;1444.4553;0;1238.104543;1444.4553;1444.4553;1444.4553;0;1440
2.368;1650.806058;1650.806058;0;1444.4553;1444.4553;1444.4553;1444.4553;0;1435
2.37;1857.156815;1650.806058;0;1444.4553;1444.4553;1444.4553;1444.4553;0;1436
2.372;1650.806058;1650.806058;0;1444.4553;1444.4553;1444.4553;1444.4553;0;1437
2.374;1444.4553;1857.156815;0;1650.806058;1444.4553;1444.4553;1444.4553;0;1438
2.376;1238.104543;1444.4553;0;1650.806058;1444.4553;1444.4553;1444.4553;0;1439
2.378;1444.4553;1650.806058;0;1650.806058;1444.4553;1444.4553;1444.4553;0;1439
2.38;1650.806058;2063.507572;0;1650.806058;1444.4553;1444.4553;1444.4553;0;1440
2.382;1444.4553;1650.806058;0;1444.4553;1650.806058;1650.806058;1650.806058;0;1440
2.384;1444.4553;1444.4553;0;1650.806058;1444.4553;1444.4553;1444.4553;0;1440
2.386;1650.806058;1650.806058;0;1650.806058;1650.806058;1650.806058;1650.806058;0;1441
2.388;1444.4553;1238.104543;0;1650.806058;1650.806058;1650.806058;1650.806058;0;1441
2.39;1650.806058;1031.753786;0;1857.156815;1650.806058;1650.806058;1650.806058;0;1441
2.392;1650.806058;1031.753786;0;1857.156815;1650.806058;1650.806058;1650.806058;0;1441
2.394;1650.806058;2682.559844;0;1650.806058;1650.806058;1650.806058;1650.806058;0;1435
2.396;1650.806058;2476.209086;0;1650.806058;1650.806058;1650.806058;1650.806058;0;1436
2.398;1650.806058;1238.104543;0;1650.806058;1650.806058;1650.806058;1650.806058;0;1437
2.4;1444.4553;206.3507572;0;1650.806058;1444.4553;1444.4553;1444.4553;0;1437
2.402;1444.4553;619.0522716;0;1650.806058;1444.4553;1444.4553;1444.4553;0;1438
2.404;1444.4553;1238.104543;0;1650.806058;1444.4553;1444.4553;1444.4553;0;1438
2.406;1444.4553;1238.104543;0;1650.806058;1444.4553;1444.4553;1444.4553;0;1438
2.408;1444.4553;1444.4553;0;1444.4553;1444.4553;1444.4553;1444.4553;0;1438
2.41;1650.806058;1650.806058;0;1444.4553;1444.4553;1444.4553;1444.4553;0;1439
2.412;1650.806058;1857.156815;0;1444.4553;1650.806058;1650.806058;1650.806058;0;1439
2.414;1650.806058;1857.156815;0;1444.4553;1650.806058;1650.806058;1650.806058;0;1439
2.416;1650.806058;2269.858329;0;1444.4553;1650.806058;1650.806058;1650.806058;0;1440
2.418;1650.806058;2888.910601;0;1444.4553;1444.4553;1444.4553;1444.4553;0;1440
2.42;1650.806058;825.4030288;0;1444.4553;1650.806058;1650.806058;1650.806058;0;1435
2.422;1650.806058;1238.104543;0;1444.4553;1444.4553;1444.4553;1444.4553;0;1436
2.424;1444.4553;825.4030288;0;1444.4553;1444.4553;1444.4553;1444.4553;0;1437
2.426;1444.4553;825.4030288;0;1444.4553;1444.4553;1444.4553;1444.4553;0;1437
2.428;1444.4553;1857.156815;0;1650.806058;1444.4553;1444.4553;1444.4553;0;1438
2.43;1444.4553;2269.858329;0;1650.806058;1444.4553;1444.4553;1444.4553;0;1438
2.432;1444.4553;1444.4553;0;1444.4553;1650.806058;1650.806058;1650.806058;0;1439
2.434;1444.4553;412.7015144;0;1444.4553;1444.4553;1444.4553;1444.4553;0;1439
2.436;1444.4553;1444.4553;0;1650.806058;1444.4553;1444.4553;1444.4553;0;1440
2.438;1650.806058;1857.156815;0;1444.4553;1444.4553;1444.4553;1444.4553;0;1440
2.44;1650.806058;1238.104543;0;1650.806058;1650.806058;1650.806058;1650.806058;0;1440
2.442;1444.4553;1650.806058;0;1650.806058;1444.4553;1444.4553;1444.4553;0;1440
2.444;1650.806058;2063.507572;0;1650.806058;1444.4553;1444.4553;1444.4553;0;1440
2.446;1444.4553;1031.753786;0;1444.4553;1444.4553;1444.4553;1444.4553;0;1435
2.448;1650.806058;1444.4553;0;1650.806058;1444.4553;1444.4553;1444.4553;0;1436
2.45;1650.806058;1857.156815;0;1650.806058;1444.4553;1444.4553;1444.4553;0;1437
2.452;1650.806058;2888.910601;0;1650.806058;1444.4553;1444.4553;1444.4553;0;1438
2.454;1650.806058;2888.910601;0;1444.4553;1444.4553;1444.4553;1444.4553;0;1439
2.456;1444.4553;619.0522716;0;1444.4553;1444.4553;1444.4553;1444.4553;0;1439
2.458;1444.4553;412.7015144;0;1650.806058;1444.4553;1444.4553;1444.4553;0;1439
2.46;1650.806058;1444.4553;0;1444.4553;1444.4553;1444.4553;1444.4553;0;1440
2.462;1650.806058;1238.104543;0;1444.4553;1444.4553;1444.4553;1444.4553;0;1440
2.464;1650.806058;1031.753786;0;1444.4553;1444.4553;1444.4553;1444.4553;0;1440
2.466;1650.806058;1444.4553;0;1444.4553;1444.4553;1444.4553;1444.4553;0;1441
2.468;1650.806058;1857.156815;0;1444.4553;1444.4553;1444.4553;1444.4553;0;1441
2.47;1444.4553;1857.156815;0;1650.806058;1444.4553;1444.4553;1444.4553;0;1441
2.472;1857.156815;1857.156815;0;1650.806058;1444.4553;1444.4553;1444.4553;0;1440
2.474;1650.806058;1857.156815;0;1444.4553;1444.4553;1444.4553;1444.4553;0;1435
2.476;1444.4553;1650.806058;0;1650.806058;1444.4553;1444.4553;1444.4553;0;1436
2.478;1238.104543;1238.104543;0;1650.806058;1444.4553;1444.4553;1444.4553;0;1437
2.48;1444.4553;1650.806058;0;1444.4553;1650.806058;1650.806058;1650.806058;0;1438
2.482;1650.806058;2269.858329;0;1444.4553;1650.806058;1650.806058;1650.806058;0;1438
2.484;1650.806058;1857.156815;0;1444.4553;1650.806058;1650.806058;1650.806058;0;1439
2.486;1650.806058;1031.753786;0;1444.4553;1650.806058;1650.806058;1650.806058;0;1439
2.488;1650.806058;1031.753786;0;1650.806058;1444.4553;1444.4553;1444.4553;0;1440
2.49;1650.806058;1444.4553;0;1444.4553;1444.4553;1444.4553;1444.4553;0;1440
2.492;1444.4553;1650.806058;0;1444.4553;1444.4553;1444.4553;1444.4553;0;1440
2.494;1444.4553;1238.104543;0;1444.4553;1444.4553;1444.4553;1444.4553;0;1440
2.496;1650.806058;1650.806058;0;1444.4553;1444.4553;1444.4553;1444.4553;0;1441
2.498;1444.4553;1444.4553;0;1650.806058;1444.4553;1444.4553;1444.4553;0;1435
2.5;1650.806058;1031.753786;0;1650.806058;1444.4553;1444.4553;1444.4553;0;1436
2.502;1444.4553;1031.753786;0;1650.806058;1444.4553;1444.4553;1444.4553;0;1437
2.504;1444.4553;1444.4553;0;1650.806058;1444.4553;1444.4553;1444.4553;0;1438
2.506;1650.806058;2063.507572;0;1650.806058;1444.4553;1444.4553;1444.4553;0;1439
2.508;1444.4553;2269.858329;0;1650.806058;1650.806058;1650.806058;1650.806058;0;1439
2.51;1444.4553;2063.507572;0;1650.806058;1650.806058;1650.806058;1650.806058;0;1439
2.512;1444.4553;1444.4553;0;1444.4553;1444.4553;1444.4553;1444.4553;0;1440
2.514;1650.806058;825.4030288;0;1650.806058;1444.4553;1444.4553;1444.4553;0;1440
2.516;1650.806058;1238.104543;0;1444.4553;1444.4553;1444.4553;1444.4553;0;1440
2.518;1650.806058;2063.507572;0;1650.806058;1444.4553;1444.4553;1444.4553;0;1441
2.52;1650.806058;1650.806058;0;1650.806058;1444.4553;1444.4553;1444.4553;0;1440
2.522;1650.806058;1650.806058;0;1444.4553;1444.4553;1444.4553;1444.4553;0;1440
2.524;1444.4553;2063.507572;0;1444.4553;1444.4553;1444.4553;1444.4553;0;1435
2.526;1650.806058;412.7015144;0;1444.4553;1444.4553;1444.4553;1444.4553;0;1436
2.528;1444.4553;412.7015144;0;1650.806058;1650.806058;1650.806058;1650.806058;0;1436
2.53;1444.4553;1650.806058;0;1444.4553;1650.806058;1650.806058;1650.806058;0;1437
2.532;1650.806058;1857.156815;0;1444.4553;1650.806058;1650.806058;1650.806058;0;1438
2.534;1650.806058;2063.507572;0;1444.4553;1444.4553;1444.4553;1444.4553;0;1438
2.536;1650.806058;1444.4553;0;1444.4553;1444.4553;1444.4553;1444.4553;0;1438
2.538;1650.806058;825.4030288;0;1444.4553;1444.4553;1444.4553;1444.4553;0;1439
2.54;1650.806058;1238.104543;0;1650.806058;1444.4553;1444.4553;1444.4553;0;1439
2.542;1650.806058;1650.806058;0;1650.806058;1444.4553;1444.4553;1444.4553;0;1439
2.544;1650.806058;2476.209086;0;1444.4553;1444.4553;1444.4553;1444.4553;0;1439
2.546;1650.806058;2682.559844;0;1444.4553;1650.806058;1650.806058;1650.806058;0;1439
2.548;1444.4553;1650.806058;0;1444.4553;1650.806058;1650.806058;1650.806058;0;1439
2.55;1444.4553;619.0522716;0;1650.806058;1444.4553;1444.4553;1444.4553;0;1433
2.552;1650.806058;1238.104543;0;1650.806058;1444.4553;1444.4553;1444.4553;0;1434
2.554;1650.806058;1444.4553;0;1650.806058;1444.4553;1444.4553;1444.4553;0;1435
2.556;1650.806058;1650.806058;0;1650.806058;1444.4553;1444.4553;1444.4553;0;1435
2.558;1444.4553;1444.4553;0;1444.4553;1444.4553;1444.4553;1444.4553;0;1437
2.56;1650.806058;1857.156815;0;1444.4553;1650.806058;1650.806058;1650.806058;0;1437
2.562;1650.806058;2063.507572;0;1444.4553;1650.806058;1650.806058;1650.806058;0;1437
2.564;1650.806058;2476.209086;0;1444.4553;1650.806058;1650.806058;1650.806058;0;1438
2.566;1444.4553;1857.156815;0;1650.806058;1650.806058;1650.806058;1650.806058;0;1438
2.568;1444.4553;1031.753786;0;1857.156815;1444.4553;1444.4553;1444.4553;0;1438
2.57;1650.806058;825.4030288;0;1650.806058;1444.4553;1444.4553;1444.4553;0;1439
2.572;1650.806058;1031.753786;0;1650.806058;1444.4553;1444.4553;1444.4553;0;1439
2.574;1650.806058;1444.4553;0;1650.806058;1444.4553;1444.4553;1444.4553;0;1439
2.576;1444.4553;2269.858329;0;1444.4553;1650.806058;1650.806058;1650.806058;0;1433
2.578;1650.806058;3095.261358;0;1444.4553;1650.806058;1650.806058;1650.806058;0;1434
2.58;1444.4553;2476.209086;0;1444.4553;1650.806058;1650.806058;1650.806058;0;1436
2.582;1444.4553;825.4030288;0;1444.4553;1650.806058;1650.806058;1650.806058;0;1436
2.584;1444.4553;619.0522716;0;1650.806058;1444.4553;1444.4553;1444.4553;0;1437
2.586;1444.4553;412.7015144;0;1650.806058;1444.4553;1444.4553;1444.4553;0;1437
2.588;1650.806058;1031.753786;0;1650.806058;1444.4553;1444.4553;1444.4553;0;1438
2.59;1650.806058;1444.4553;0;1650.806058;1444.4553;1444.4553;1444.4553;0;1438
2.592;1650.806058;1857.156815;0;1650.806058;1444.4553;1444.4553;1444.4553;0;1439
2.594;1650.806058;2476.209086;0;1650.806058;1444.4553;1444.4553;1444.4553;0;1439
2.596;1650.806058;1650.806058;0;1444.4553;1650.806058;1650.806058;1650.806058;0;1439
2.598;1444.4553;1238.104543;0;1444.4553;1650.806058;1650.806058;1650.806058;0;1439
2.6;1444.4553;2063.507572;0;1650.806058;1444.4553;1444.4553;1444.4553;0;1439
2.602;1650.806058;619.0522716;0;1650.806058;1444.4553;1444.4553;1444.4553;0;1434
2.604;1650.806058;1031.753786;0;1650.806058;1444.4553;1444.4553;1444.4553;0;1434
2.606;1650.806058;1444.4553;0;1650.806058;1444.4553;1444.4553;1444.4553;0;1435
2.608;1857.156815;1444.4553;0;1444.4553;1444.4553;1444.4553;1444.4553;0;1436
2.61;1650.806058;1650.806058;0;1444.4553;1444.4553;1444.4553;1444.4553;0;1436
2.612;1238.104543;1857.156815;0;1444.4553;1444.4553;1444.4553;1444.4553;0;1437
2.614;1238.104543;1857.156815;0;1444.4553;1650.806058;1650.806058;1650.806058;0;1438
2.616;1444.4553;1857.156815;0;1444.4553;1650.806058;1650.806058;1650.806058;0;1438
2.618;1650.806058;1650.806058;0;1650.806058;1444.4553;1444.4553;1444.4553;0;1438
2.62;1650.806058;1650.806058;0;1650.806058;1444.4553;1444.4553;1444.4553;0;1439
2.622;1650.806058;1238.104543;0;1650.806058;1444.4553;1444.4553;1444.4553;0;1439
2.624;1650.806058;1650.806058;0;1444.4553;1444.4553;1444.4553;1444.4553;0;1439
2.626;1650.806058;2063.507572;0;1444.4553;1444.4553;1444.4553;1444.4553;0;1440
2.628;1444.4553;2269.858329;0;1444.4553;1650.806058;1650.806058;1650.806058;0;1434
2.63;1650.806058;3095.261358;0;1444.4553;1650.806058;1650.806058;1650.806058;0;1435
2.632;1444.4553;2063.507572;0;1444.4553;1650.806058;1650.806058;1650.806058;0;1436
2.634;1650.806058;412.7015144;0;1444.4553;1650.806058;1650.806058;1650.806058;0;1436
2.636;1650.806058;0;0;1650.806058;1444.4553;1444.4553;1444.4553;0;1436
2.638;1444.4553;825.4030288;0;1650.806058;1444.4553;1444.4553;1444.4553;0;1437
2.64;1650.806058;1444.4553;0;1444.4553;1444.4553;1444.4553;1444.4553;0;1437
2.642;1444.4553;1238.104543;0;1444.4553;1444.4553;1444.4553;1444.4553;0;1437
2.644;1650.806058;1238.104543;0;1650.806058;1444.4553;1444.4553;1444.4553;0;1438
2.646;1650.806058;1444.4553;0;1650.806058;1444.4553;1444.4553;1444.4553;0;1438
2.648;1650.806058;1857.156815;0;1650.806058;1444.4553;1444.4553;1444.4553;0;1438
2.65;1650.806058;2269.858329;0;1444.4553;1650.806058;1650.806058;1650.806058;0;1438
2.652;1650.806058;2063.507572;0;1238.104543;1650.806058;1650.806058;1650.806058;0;1438
2.654;1444.4553;1238.104543;0;1650.806058;1444.4553;1444.4553;1444.4553;0;1433
2.656;1650.806058;1857.156815;0;1650.806058;1444.4553;1444.4553;1444.4553;0;1434
2.658;1650.806058;1444.4553;0;1650.806058;1444.4553;1444.4553;1444.4553;0;1435
2.66;1444.4553;1031.753786;0;1650.806058;1444.4553;1444.4553;1444.4553;0;1436
2.662;1650.806058;1444.4553;0;1650.806058;1444.4553;1444.4553;1444.4553;0;1436
2.664;1650.806058;1857.156815;0;1444.4553;1444.4553;1444.4553;1444.4553;0;1436
2.666;1650.806058;2888.910601;0;1444.4553;1650.806058;1650.806058;1650.806058;0;1436
2.668;1650.806058;2888.910601;0;1444.4553;1650.806058;1650.806058;1650.806058;0;1437
2.67;1650.806058;1238.104543;0;1444.4553;1444.4553;1444.4553;1444.4553;0;1437
2.672;1444.4553;0;0;1650.806058;1444.4553;1444.4553;1444.4553;0;1437
2.674;1444.4553;825.4030288;0;1650.806058;1444.4553;1444.4553;1444.4553;0;1438
2.676;1444.4553;1650.806058;0;1444.4553;1444.4553;1444.4553;1444.4553;0;1438
2.678;1444.4553;1857.156815;0;1444.4553;1650.806058;1650.806058;1650.806058;0;1438
2.68;1650.806058;1238.104543;0;1444.4553;1444.4553;1444.4553;1444.4553;0;1433
2.682;1650.806058;1857.156815;0;1444.4553;1444.4553;1444.4553;1444.4553;0;1434
2.684;1650.806058;1857.156815;0;1444.4553;1444.4553;1444.4553;1444.4553;0;1435
2.686;1444.4553;2063.507572;0;1650.806058;1444.4553;1444.4553;1444.4553;0;1436
2.688;1650.806058;2476.209086;0;1444.4553;1444.4553;1444.4553;1444.4553;0;1436
2.69;1857.156815;1444.4553;0;1444.4553;1444.4553;1444.4553;1444.4553;0;1436
2.692;1650.806058;206.3507572;0;1650.806058;1444.4553;1444.4553;1444.4553;0;1437
2.694;1444.4553;825.4030288;0;1650.806058;1444.4553;1444.4553;1444.4553;0;1437
2.696;1238.104543;1650.806058;0;1650.806058;1444.4553;1444.4553;1444.4553;0;1438
2.698;1444.4553;1650.806058;0;1650.806058;1444.4553;1444.4553;1444.4553;0;1438
2.7;1444.4553;1444.4553;0;1444.4553;1444.4553;1444.4553;1444.4553;0;1439
2.702;1444.4553;1650.806058;0;1444.4553;1444.4553;1444.4553;1444.4553;0;1439
2.704;1444.4553;1857.156815;0;1650.806058;1444.4553;1444.4553;1444.4553;0;1440
2.706;1650.806058;1444.4553;0;1650.806058;1650.806058;1650.806058;1650.806058;0;1435
2.708;1650.806058;2269.858329;0;1650.806058;1650.806058;1650.806058;1650.806058;0;1436
2.71;1650.806058;2682.559844;0;1650.806058;1650.806058;1650.806058;1650.806058;0;1437
2.712;1650.806058;1857.156815;0;1650.806058;1650.806058;1650.806058;1650.806058;0;1437
2.714;1444.4553;206.3507572;0;1650.806058;1444.4553;1444.4553;1444.4553;0;1438
2.716;1444.4553;412.7015144;0;1650.806058;1444.4553;1444.4553;1444.4553;0;1439
2.718;1444.4553;1238.104543;0;1650.806058;1444.4553;1444.4553;1444.4553;0;1439
2.72;1444.4553;1650.806058;0;1650.806058;1444.4553;1444.4553;1444.4553;0;1439
2.722;1444.4553;2063.507572;0;1444.4553;1650.806058;1650.806058;1650.806058;0;1439
2.724;1650.806058;2682.559844;0;1444.4553;1650.806058;1650.806058;1650.806058;0;1439
2.726;1650.806058;2476.209086;0;1444.4553;1650.806058;1650.806058;1650.806058;0;1439
2.728;1650.806058;1238.104543;0;1444.4553;1650.806058;1650.806058;1650.806058;0;1440
2.73;1650.806058;206.3507572;0;1444.4553;1444.4553;1444.4553;1444.4553;0;1440
2.732;1650.806058;1650.806058;0;1857.156815;1444.4553;1444.4553;1444.4553;0;1434
2.734;1650.806058;1857.156815;0;1650.806058;1444.4553;1444.4553;1444.4553;0;1435
2.736;1444.4553;1444.4553;0;1650.806058;1444.4553;1444.4553;1444.4553;0;1436
2.738;1444.4553;1238.104543;0;1444.4553;1650.806058;1650.806058;1650.806058;0;1437
2.74;1444.4553;1650.806058;0;1444.4553;1650.806058;1650.806058;1650.806058;0;1437
2.742;1650.806058;2063.507572;0;1650.806058;1444.4553;1444.4553;1444.4553;0;1438
2.744;1650.806058;1650.806058;0;1444.4553;1444.4553;1444.4553;1444.4553;0;1438
2.746;1650.806058;1238.104543;0;1444.4553;1444.4553;1444.4553;1444.4553;0;1438
2.748;1444.4553;1444.4553;0;1650.806058;1444.4553;1444.4553;1444.4553;0;1438
2.75;1650.806058;1857.156815;0;1650.806058;1444.4553;1444.4553;1444.4553;0;1439
2.752;1650.806058;2063.507572;0;1650.806058;1650.806058;1650.806058;1650.806058;0;1439
2.754;1650.806058;1857.156815;0;1444.4553;1650.806058;1650.806058;1650.806058;0;1439
2.756;1650.806058;1444.4553;0;1444.4553;1650.806058;1650.806058;1650.806058;0;1439
2.758;1444.4553;825.4030288;0;1650.806058;1444.4553;1444.4553;1444.4553;0;1434
2.76;1650.806058;1857.156815;0;1444.4553;1650.806058;1650.806058;1650.806058;0;1435
2.762;1650.806058;2682.559844;0;1444.4553;1650.806058;1650.806058;1650.806058;0;1435
2.764;1444.4553;1650.806058;0;1444.4553;1650.806058;1650.806058;1650.806058;0;1437
2.766;1444.4553;619.0522716;0;1650.806058;1650.806058;1650.806058;1650.806058;0;1437
2.768;1444.4553;825.4030288;0;1650.806058;1444.4553;1444.4553;1444.4553;0;1437
2.77;1650.806058;1031.753786;0;1650.806058;1444.4553;1444.4553;1444.4553;0;1438
2.772;1650.806058;1238.104543;0;1650.806058;1444.4553;1444.4553;1444.4553;0;1438
2.774;1650.806058;1238.104543;0;1650.806058;1444.4553;1444.4553;1444.4553;0;1438
2.776;1444.4553;1031.753786;0;1444.4553;1444.4553;1444.4553;1444.4553;0;1438
2.778;1650.806058;1238.104543;0;1650.806058;1444.4553;1444.4553;1444.4553;0;1439
2.78;1650.806058;1444.4553;0;1444.4553;1444.4553;1444.4553;1444.4553;0;1439
2.782;1650.806058;1857.156815;0;1444.4553;1444.4553;1444.4553;1444.4553;0;1439
2.784;1650.806058;2888.910601;0;1444.4553;1444.4553;1444.4553;1444.4553;0;1434
2.786;1650.806058;1031.753786;0;1444.4553;1444.4553;1444.4553;1444.4553;0;1435
2.788;1444.4553;206.3507572;0;1650.806058;1444.4553;1444.4553;1444.4553;0;1436
2.79;1444.4553;1238.104543;0;1650.806058;1444.4553;1444.4553;1444.4553;0;1436
2.792;1650.806058;1444.4553;0;1650.806058;1650.806058;1650.806058;1650.806058;0;1436
2.794;1650.806058;1444.4553;0;1444.4553;1650.806058;1650.806058;1650.806058;0;1436
2.796;1650.806058;1444.4553;0;1444.4553;1650.806058;1650.806058;1650.806058;0;1437
2.798;1650.806058;1650.806058;0;1444.4553;1650.806058;1650.806058;1650.806058;0;1437
2.8;1650.806058;1857.156815;0;1444.4553;1650.806058;1650.806058;1650.806058;0;1437
2.802;1650.806058;2063.507572;0;1650.806058;1650.806058;1650.806058;1650.806058;0;1437
2.804;1650.806058;1650.806058;0;1650.806058;1650.806058;1650.806058;1650.806058;0;1437
2.806;1650.806058;1650.806058;0;1650.806058;1650.806058;1650.806058;1650.806058;0;1437
2.808;1650.806058;2682.559844;0;1444.4553;1650.806058;1650.806058;1650.806058;0;1438
2.81;1650.806058;206.3507572;0;1444.4553;1444.4553;1444.4553;1444.4553;0;1432
2.812;1650.806058;206.3507572;0;1650.806058;1444.4553;1444.4553;1444.4553;0;1433
2.814;1857.156815;1444.4553;0;1650.806058;1444.4553;1444.4553;1444.4553;0;1434
2.816;1444.4553;1857.156815;0;1444.4553;1650.806058;1650.806058;1650.806058;0;1434
2.818;1238.104543;2063.507572;0;1444.4553;1650.806058;1650.806058;1650.806058;0;1435
2.82;1238.104543;1857.156815;0;1444.4553;1650.806058;1650.806058;1650.806058;0;1435
2.822;1238.104543;2063.507572;0;1650.806058;1650.806058;1650.806058;1650.806058;0;1435
2.824;1444.4553;1650.806058;0;1650.806058;1444.4553;1444.4553;1444.4553;0;1436
2.826;1444.4553;825.4030288;0;1650.806058;1444.4553;1444.4553;1444.4553;0;1436
2.828;1444.4553;1238.104543;0;1650.806058;1444.4553;1444.4553;1444.4553;0;1436
2.83;1444.4553;1650.806058;0;1444.4553;1650.806058;1650.806058;1650.806058;0;1436
2.832;1650.806058;1238.104543;0;1444.4553;1444.4553;1444.4553;1444.4553;0;1436
2.834;1650.806058;1238.104543;0;1444.4553;1444.4553;1444.4553;1444.4553;0;1437
2.836;1650.806058;1650.806058;0;1650.806058;1444.4553;1444.4553;1444.4553;0;1431
2.838;1650.806058;2476.209086;0;1650.806058;1444.4553;1444.4553;1444.4553;0;1432
2.84;1650.806058;2682.559844;0;1444.4553;1650.806058;1650.806058;1650.806058;0;1433
2.842;1444.4553;1444.4553;0;1444.4553;1444.4553;1444.4553;1444.4553;0;1434
2.844;1444.4553;412.7015144;0;1650.806058;1444.4553;1444.4553;1444.4553;0;1434
2.846;1650.806058;1031.753786;0;1650.806058;1444.4553;1444.4553;1444.4553;0;1435
2.848;1650.806058;2063.507572;0;1650.806058;1444.4553;1444.4553;1444.4553;0;1435
2.85;1650.806058;1857.156815;0;1650.806058;1444.4553;1444.4553;1444.4553;0;1435
2.852;1650.806058;1238.104543;0;1650.806058;1444.4553;1444.4553;1444.4553;0;1435
2.854;1650.806058;1444.4553;0;1650.806058;1444.4553;1444.4553;1444.4553;0;1435
2.856;1650.806058;2476.209086;0;1650.806058;1650.806058;1650.806058;1650.806058;0;1436
2.858;1650.806058;2888.910601;0;1650.806058;1650.806058;1650.806058;1650.806058;0;1436
2.86;1650.806058;1444.4553;0;1444.4553;1650.806058;1650.806058;1650.806058;0;1436
2.862;1444.4553;1650.806058;0;1444.4553;1444.4553;1444.4553;1444.4553;0;1430
2.864;1650.806058;1238.104543;0;1444.4553;1444.4553;1444.4553;1444.4553;0;1431
2.866;1444.4553;825.4030288;0;1650.806058;1444.4553;1444.4553;1444.4553;0;1432
2.868;1444.4553;825.4030288;0;1650.806058;1444.4553;1444.4553;1444.4553;0;1432
2.87;1650.806058;1238.104543;0;1650.806058;1444.4553;1444.4553;1444.4553;0;1433
2.872;1650.806058;1650.806058;0;1444.4553;1444.4553;1444.4553;1444.4553;0;1434
2.874;1650.806058;1857.156815;0;1444.4553;1650.806058;1650.806058;1650.806058;0;1434
2.876;1650.806058;2682.559844;0;1444.4553;1650.806058;1650.806058;1650.806058;0;1435
2.878;1650.806058;3095.261358;0;1238.104543;1650.806058;1650.806058;1650.806058;0;1435
2.88;1650.806058;2269.858329;0;1238.104543;1650.806058;1650.806058;1650.806058;0;1436
2.882;1444.4553;412.7015144;0;1650.806058;1444.4553;1444.4553;1444.4553;0;1436
2.884;1650.806058;0;0;1857.156815;1444.4553;1444.4553;1444.4553;0;1436
2.886;1650.806058;1444.4553;0;1650.806058;1444.4553;1444.4553;1444.4553;0;1437
2.888;1444.4553;1031.753786;0;1650.806058;1650.806058;1650.806058;1650.806058;0;1431
2.89;1650.806058;1238.104543;0;1444.4553;1444.4553;1444.4553;1444.4553;0;1432
2.892;1650.806058;1650.806058;0;1444.4553;1650.806058;1650.806058;1650.806058;0;1433
2.894;1650.806058;1857.156815;0;1444.4553;1650.806058;1650.806058;1650.806058;0;1434
2.896;1650.806058;1857.156815;0;1444.4553;1650.806058;1650.806058;1650.806058;0;1434
2.898;1650.806058;2063.507572;0;1444.4553;1444.4553;1444.4553;1444.4553;0;1435
2.9;1650.806058;1650.806058;0;1444.4553;1444.4553;1444.4553;1444.4553;0;1435
2.902;1857.156815;1031.753786;0;1650.806058;1650.806058;1650.806058;1650.806058;0;1435
2.904;1650.806058;1650.806058;0;1650.806058;1444.4553;1444.4553;1444.4553;0;1436
2.906;1238.104543;1444.4553;0;1444.4553;1444.4553;1444.4553;1444.4553;0;1436
2.908;1031.753786;1444.4553;0;1444.4553;1444.4553;1444.4553;1444.4553;0;1436
2.91;1238.104543;1857.156815;0;1444.4553;1444.4553;1444.4553;1444.4553;0;1436
2.912;1444.4553;1857.156815;0;1444.4553;1444.4553;1444.4553;1444.4553;0;1436
2.914;1650.806058;1650.806058;0;1444.4553;1444.4553;1444.4553;1444.4553;0;1431
2.916;1650.806058;1444.4553;0;1444.4553;1444.4553;1444.4553;1444.4553;0;1432
2.918;1650.806058;1238.104543;0;1444.4553;1650.806058;1650.806058;1650.806058;0;1433
2.92;1650.806058;1650.806058;0;1650.806058;1444.4553;1444.4553;1444.4553;0;1434
2.922;1650.806058;2063.507572;0;1650.806058;1444.4553;1444.4553;1444.4553;0;1434
2.924;1650.806058;1650.806058;0;1444.4553;1650.806058;1650.806058;1650.806058;0;1435
2.926;1650.806058;1650.806058;0;1444.4553;1650.806058;1650.806058;1650.806058;0;1436
2.928;1650.806058;1857.156815;0;1444.4553;1444.4553;1444.4553;1444.4553;0;1436
2.93;1650.806058;2888.910601;0;1444.4553;1444.4553;1444.4553;1444.4553;0;1436
2.932;1650.806058;2682.559844;0;1650.806058;1444.4553;1444.4553;1444.4553;0;1436
2.934;1650.806058;619.0522716;0;1650.806058;1444.4553;1444.4553;1444.4553;0;1436
2.936;1650.806058;206.3507572;0;1650.806058;1444.4553;1444.4553;1444.4553;0;1436
2.938;1650.806058;825.4030288;0;1650.806058;1444.4553;1444.4553;1444.4553;0;1437
