0.002;638.3976551;1444.4553;0;1444.4553;1444.4553;1444.4553;1444.4553;0;1394
0.004;1444.4553;1444.4553;0;1444.4553;1444.4553;1444.4553;1444.4553;0;1389
0.006;1444.4553;1444.4553;0;1444.4553;1444.4553;1444.4553;1444.4553;0;1385
0.008;1444.4553;1444.4553;0;1444.4553;1444.4553;1444.4553;1444.4553;0;1382
0.01;1650.806058;1650.806058;0;1444.4553;1444.4553;1444.4553;1444.4553;0;1378
0.012;1444.4553;1650.806058;0;1444.4553;1444.4553;1444.4553;1444.4553;0;1375
0.014;1444.4553;1650.806058;0;1650.806058;1650.806058;1650.806058;1650.806058;0;1372
0.016;1444.4553;1650.806058;0;1650.806058;1444.4553;1444.4553;1444.4553;0;1370
0.018;1444.4553;1650.806058;0;1650.806058;1444.4553;1444.4553;1444.4553;0;1368
0.02;1444.4553;1444.4553;0;1650.806058;1444.4553;1444.4553;1444.4553;0;1367
0.022;1444.4553;1444.4553;0;1444.4553;1444.4553;1444.4553;1444.4553;0;1364
0.024;1444.4553;1444.4553;0;1444.4553;1444.4553;1444.4553;1444.4553;0;1363
0.026;1444.4553;1444.4553;0;1444.4553;1444.4553;1444.4553;1444.4553;0;1362
0.028;1444.4553;1650.806058;0;1650.806058;1444.4553;1444.4553;1444.4553;0;1366
0.03;1444.4553;1650.806058;0;1650.806058;1650.806058;1650.806058;1650.806058;0;1365
0.032;1444.4553;1650.806058;0;1650.806058;1444.4553;1444.4553;1444.4553;0;1364
0.034;1444.4553;1650.806058;0;1650.806058;1444.4553;1444.4553;1444.4553;0;1363
0.036;1444.4553;1444.4553;0;1650.806058;1444.4553;1444.4553;1444.4553;0;1362
0.038;1444.4553;1444.4553;0;1444.4553;1444.4553;1444.4553;1444.4553;0;1362
0.04;1444.4553;1444.4553;0;1238.104543;1444.4553;1444.4553;1444.4553;0;1361
0.042;1444.4553;1444.4553;0;1444.4553;1444.4553;1444.4553;1444.4553;0;1374
0.044;1444.4553;1650.806058;0;1650.806058;1444.4553;1444.4553;1444.4553;0;1372
0.046;1444.4553;1650.806058;0;1650.806058;1444.4553;1444.4553;1444.4553;0;1371
0.048;1444.4553;1650.806058;0;1650.806058;1650.806058;1650.806058;1650.806058;0;1369
0.05;1444.4553;1650.806058;0;1650.806058;1650.806058;1650.806058;1650.806058;0;1368
0.052;1444.4553;1650.806058;0;1650.806058;1650.806058;1650.806058;1650.806058;0;1366
0.054;1444.4553;1650.806058;0;1444.4553;1444.4553;1444.4553;1444.4553;0;1364
0.056;1444.4553;1444.4553;0;1444.4553;1444.4553;1444.4553;1444.4553;0;1362
0.058;1444.4553;1444.4553;0;1444.4553;1444.4553;1444.4553;1444.4553;0;1362
0.06;1444.4553;1444.4553;0;1444.4553;1444.4553;1444.4553;1444.4553;0;1361
0.062;1444.4553;1650.806058;0;1444.4553;1650.806058;1650.806058;1650.806058;0;1361
0.064;1650.806058;1650.806058;0;1857.156815;1444.4553;1444.4553;1444.4553;0;1360
0.066;1444.4553;1650.806058;0;1650.806058;1444.4553;1444.4553;1444.4553;0;1359
0.068;1444.4553;1650.806058;0;1650.806058;1650.806058;1650.806058;1650.806058;0;1373
0.07;1444.4553;1650.806058;0;1444.4553;1650.806058;1650.806058;1650.806058;0;1386
0.072;1444.4553;1444.4553;0;1650.806058;1444.4553;1444.4553;1444.4553;0;1397
0.074;1444.4553;1444.4553;0;1444.4553;1444.4553;1444.4553;1444.4553;0;1407
0.076;1444.4553;1444.4553;0;1444.4553;1444.4553;1444.4553;1444.4553;0;1400
0.078;1444.4553;1444.4553;0;1444.4553;1444.4553;1444.4553;1444.4553;0;1394
0.08;1444.4553;1650.806058;0;1650.806058;1444.4553;1444.4553;1444.4553;0;1385
0.082;1444.4553;1650.806058;0;1650.806058;1444.4553;1444.4553;1444.4553;0;1382
0.084;1444.4553;1650.806058;0;1650.806058;1650.806058;1650.806058;1650.806058;0;1379
0.086;1444.4553;1650.806058;0;1650.806058;1444.4553;1444.4553;1444.4553;0;1376
0.088;1444.4553;1444.4553;0;1650.806058;1444.4553;1444.4553;1444.4553;0;1374
0.09;1444.4553;1444.4553;0;1444.4553;1444.4553;1444.4553;1444.4553;0;1371
0.092;1444.4553;1444.4553;0;1444.4553;1444.4553;1444.4553;1444.4553;0;1369
0.094;1444.4553;1444.4553;0;1444.4553;1444.4553;1444.4553;1444.4553;0;1368
0.096;1650.806058;1650.806058;0;1444.4553;1444.4553;1444.4553;1444.4553;0;1367
0.098;1444.4553;1650.806058;0;1444.4553;1444.4553;1444.4553;1444.4553;0;1366
0.1;1444.4553;1650.806058;0;1650.806058;1444.4553;1444.4553;1444.4553;0;1377
0.102;1444.4553;1650.806058;0;1857.156815;1650.806058;1650.806058;1650.806058;0;1374
0.104;1444.4553;1650.806058;0;1650.806058;1650.806058;1650.806058;1650.806058;0;1372
0.106;1444.4553;1444.4553;0;1444.4553;1444.4553;1444.4553;1444.4553;0;1368
0.108;1444.4553;1444.4553;0;1444.4553;1444.4553;1444.4553;1444.4553;0;1366
0.11;1650.806058;1444.4553;0;1444.4553;1444.4553;1444.4553;1444.4553;0;1366
0.112;1444.4553;1650.806058;0;1444.4553;1444.4553;1444.4553;1444.4553;0;1371
0.114;1444.4553;1650.806058;0;1650.806058;1444.4553;1444.4553;1444.4553;0;1369
0.116;1444.4553;1650.806058;0;1650.806058;1650.806058;1650.806058;1650.806058;0;1367
0.118;1444.4553;1650.806058;0;1650.806058;1444.4553;1444.4553;1444.4553;0;1366
0.12;1444.4553;1650.806058;0;1650.806058;1444.4553;1444.4553;1444.4553;0;1365
0.122;1444.4553;1650.806058;0;1650.806058;1444.4553;1444.4553;1444.4553;0;1364
0.124;1444.4553;1444.4553;0;1444.4553;1444.4553;1444.4553;1444.4553;0;1363
0.126;1444.4553;1444.4553;0;1238.104543;1444.4553;1444.4553;1444.4553;0;1363
0.128;1444.4553;1444.4553;0;1444.4553;1444.4553;1444.4553;1444.4553;0;1361
0.13;1444.4553;1444.4553;0;1444.4553;1444.4553;1444.4553;1444.4553;0;1361
0.132;1444.4553;1650.806058;0;1650.806058;1650.806058;1650.806058;1650.806058;0;1359
0.134;1444.4553;1650.806058;0;1650.806058;1444.4553;1444.4553;1444.4553;0;1359
0.136;1444.4553;1650.806058;0;1650.806058;1444.4553;1444.4553;1444.4553;0;1359
0.138;1444.4553;1650.806058;0;1650.806058;1444.4553;1444.4553;1444.4553;0;1359
0.14;1444.4553;1444.4553;0;1444.4553;1444.4553;1444.4553;1444.4553;0;1368
0.142;1444.4553;1444.4553;0;1444.4553;1444.4553;1444.4553;1444.4553;0;1367
0.144;1444.4553;1444.4553;0;1238.104543;1444.4553;1444.4553;1444.4553;0;1366
0.146;1444.4553;1444.4553;0;1444.4553;1444.4553;1444.4553;1444.4553;0;1365
0.148;1650.806058;1650.806058;0;1650.806058;1444.4553;1444.4553;1444.4553;0;1363
0.15;1444.4553;1650.806058;0;1650.806058;1444.4553;1444.4553;1444.4553;0;1362
0.152;1444.4553;1650.806058;0;1650.806058;1650.806058;1650.806058;1650.806058;0;1362
0.154;1444.4553;1650.806058;0;1650.806058;1650.806058;1650.806058;1650.806058;0;1361
0.156;1444.4553;1650.806058;0;1650.806058;1444.4553;1444.4553;1444.4553;0;1360
0.158;1444.4553;1444.4553;0;1444.4553;1444.4553;1444.4553;1444.4553;0;1359
0.16;1444.4553;1444.4553;0;1238.104543;1444.4553;1444.4553;1444.4553;0;1359
0.162;1444.4553;1444.4553;0;1444.4553;1444.4553;1444.4553;1444.4553;0;1358
0.164;1444.4553;1650.806058;0;1650.806058;1444.4553;1444.4553;1444.4553;0;1358
0.166;1444.4553;1650.806058;0;1650.806058;1444.4553;1444.4553;1444.4553;0;1368
0.168;1444.4553;1650.806058;0;1650.806058;1650.806058;1650.806058;1650.806058;0;1367
0.17;1444.4553;1650.806058;0;1650.806058;1444.4553;1444.4553;1444.4553;0;1365
0.172;1444.4553;1444.4553;0;1650.806058;1444.4553;1444.4553;1444.4553;0;1364
0.174;1444.4553;1444.4553;0;1444.4553;1444.4553;1444.4553;1444.4553;0;1363
0.176;1444.4553;1444.4553;0;1444.4553;1444.4553;1444.4553;1444.4553;0;1362
0.178;1444.4553;1444.4553;0;1650.806058;1444.4553;1444.4553;1444.4553;0;1362
0.18;1444.4553;1650.806058;0;1238.104543;1444.4553;1444.4553;1444.4553;0;1361
0.182;1444.4553;1650.806058;0;1238.104543;1444.4553;1444.4553;1444.4553;0;1361
0.184;1444.4553;1650.806058;0;1650.806058;1444.4553;1444.4553;1444.4553;0;1360
0.186;1444.4553;1650.806058;0;1650.806058;1650.806058;1650.806058;1650.806058;0;1360
0.188;1444.4553;1650.806058;0;1650.806058;1444.4553;1444.4553;1444.4553;0;1359
0.19;1444.4553;1444.4553;0;1444.4553;1444.4553;1444.4553;1444.4553;0;1359
0.192;1444.4553;1444.4553;0;1444.4553;1444.4553;1444.4553;1444.4553;0;1359
0.194;1444.4553;1444.4553;0;1444.4553;1444.4553;1444.4553;1444.4553;0;1358
0.196;1444.4553;1444.4553;0;1650.806058;1444.4553;1444.4553;1444.4553;0;1358
0.198;1444.4553;1650.806058;0;1444.4553;1444.4553;1444.4553;1444.4553;0;1358
0.2;1444.4553;1650.806058;0;1238.104543;1650.806058;1650.806058;1650.806058;0;1357
0.202;1444.4553;1650.806058;0;1650.806058;1444.4553;1444.4553;1444.4553;0;1357
0.204;1444.4553;1650.806058;0;1857.156815;1650.806058;1650.806058;1650.806058;0;1356
0.206;1444.4553;1650.806058;0;1650.806058;1650.806058;1650.806058;1650.806058;0;1356
0.208;1444.4553;1444.4553;0;1444.4553;1444.4553;1444.4553;1444.4553;0;1356
0.21;1444.4553;1444.4553;0;1444.4553;1444.4553;1444.4553;1444.4553;0;1356
0.212;1444.4553;1444.4553;0;1444.4553;1444.4553;1444.4553;1444.4553;0;1356
0.214;1444.4553;1650.806058;0;1444.4553;1444.4553;1444.4553;1444.4553;0;1356
0.216;1444.4553;1650.806058;0;1650.806058;1444.4553;1444.4553;1444.4553;0;1356
0.218;1444.4553;1650.806058;0;1650.806058;1444.4553;1444.4553;1444.4553;0;1357
0.22;1444.4553;1650.806058;0;1650.806058;1650.806058;1650.806058;1650.806058;0;1357
0.222;1444.4553;1650.806058;0;1650.806058;1444.4553;1444.4553;1444.4553;0;1357
0.224;1444.4553;1444.4553;0;1444.4553;1444.4553;1444.4553;1444.4553;0;1356
0.226;1444.4553;1444.4553;0;1444.4553;1444.4553;1444.4553;1444.4553;0;1356
0.228;1444.4553;1444.4553;0;1444.4553;1444.4553;1444.4553;1444.4553;0;1356
0.23;1444.4553;1444.4553;0;1444.4553;1444.4553;1444.4553;1444.4553;0;1356
0.232;1444.4553;1650.806058;0;1444.4553;1444.4553;1444.4553;1444.4553;0;1356
0.234;1444.4553;1650.806058;0;1650.806058;1444.4553;1444.4553;1444.4553;0;1356
0.236;1444.4553;1650.806058;0;1650.806058;1444.4553;1444.4553;1444.4553;0;1356
0.238;1444.4553;1444.4553;0;1650.806058;1444.4553;1444.4553;1444.4553;0;1356
0.24;1444.4553;1444.4553;0;1444.4553;1444.4553;1444.4553;1444.4553;0;1357
0.242;1444.4553;1444.4553;0;1444.4553;1444.4553;1444.4553;1444.4553;0;1357
0.244;1444.4553;1444.4553;0;1444.4553;1444.4553;1444.4553;1444.4553;0;1369
0.246;1444.4553;1650.806058;0;1238.104543;1444.4553;1444.4553;1444.4553;0;1368
0.248;1444.4553;1444.4553;0;1444.4553;1444.4553;1444.4553;1444.4553;0;1367
0.25;1444.4553;1650.806058;0;1650.806058;1444.4553;1444.4553;1444.4553;0;1365
0.252;1444.4553;1650.806058;0;1650.806058;1444.4553;1444.4553;1444.4553;0;1364
0.254;1444.4553;1650.806058;0;1650.806058;1444.4553;1444.4553;1444.4553;0;1364
0.256;1444.4553;1650.806058;0;1650.806058;1650.806058;1650.806058;1650.806058;0;1362
0.258;1444.4553;1650.806058;0;1650.806058;1444.4553;1444.4553;1444.4553;0;1374
0.26;1444.4553;1444.4553;0;1444.4553;1444.4553;1444.4553;1444.4553;0;1372
0.262;1444.4553;1444.4553;0;1238.104543;1444.4553;1444.4553;1444.4553;0;1369
0.264;1444.4553;1444.4553;0;1444.4553;1444.4553;1444.4553;1444.4553;0;1367
0.266;1444.4553;1650.806058;0;1444.4553;1444.4553;1444.4553;1444.4553;0;1366
0.268;1444.4553;1650.806058;0;1650.806058;1444.4553;1444.4553;1444.4553;0;1365
0.27;1444.4553;1650.806058;0;1650.806058;1444.4553;1444.4553;1444.4553;0;1364
0.272;1444.4553;1650.806058;0;1650.806058;1650.806058;1650.806058;1650.806058;0;1363
0.274;1444.4553;1650.806058;0;1444.4553;1444.4553;1444.4553;1444.4553;0;1362
0.276;1444.4553;1444.4553;0;1444.4553;1444.4553;1444.4553;1444.4553;0;1362
0.278;1444.4553;1444.4553;0;1444.4553;1444.4553;1444.4553;1444.4553;0;1361
0.28;1444.4553;1444.4553;0;1238.104543;1444.4553;1444.4553;1444.4553;0;1360
0.282;1650.806058;1444.4553;0;1444.4553;1444.4553;1444.4553;1444.4553;0;1360
0.284;1444.4553;1650.806058;0;1444.4553;1444.4553;1444.4553;1444.4553;0;1360
0.286;1444.4553;1650.806058;0;1650.806058;1444.4553;1444.4553;1444.4553;0;1359
0.288;1444.4553;1650.806058;0;1650.806058;1650.806058;1650.806058;1650.806058;0;1359
0.29;1444.4553;1444.4553;0;1650.806058;1444.4553;1444.4553;1444.4553;0;1358
0.292;1444.4553;1444.4553;0;1444.4553;1444.4553;1444.4553;1444.4553;0;1358
0.294;1444.4553;1444.4553;0;1444.4553;1444.4553;1444.4553;1444.4553;0;1358
0.296;1444.4553;1444.4553;0;1444.4553;1444.4553;1444.4553;1444.4553;0;1357
0.298;1444.4553;1444.4553;0;1444.4553;1444.4553;1444.4553;1444.4553;0;1357
0.3;1444.4553;1650.806058;0;1444.4553;1444.4553;1444.4553;1444.4553;0;1357
0.302;1444.4553;1650.806058;0;1650.806058;1444.4553;1444.4553;1444.4553;0;1357
0.304;1444.4553;1650.806058;0;1650.806058;1650.806058;1650.806058;1650.806058;0;1356
0.306;1444.4553;1650.806058;0;1650.806058;1650.806058;1650.806058;1650.806058;0;1357
0.308;1444.4553;1650.806058;0;1650.806058;1444.4553;1444.4553;1444.4553;0;1357
0.31;1444.4553;1444.4553;0;1650.806058;1444.4553;1444.4553;1444.4553;0;1357
0.312;1444.4553;1444.4553;0;1444.4553;1444.4553;1444.4553;1444.4553;0;1357
0.314;1444.4553;1444.4553;0;1444.4553;1444.4553;1444.4553;1444.4553;0;1357
0.316;1444.4553;1444.4553;0;1650.806058;1650.806058;1650.806058;1650.806058;0;1371
0.318;1444.4553;1650.806058;0;1650.806058;1650.806058;1650.806058;1650.806058;0;1369
0.32;1444.4553;1650.806058;0;1650.806058;1650.806058;1650.806058;1650.806058;0;1367
0.322;1444.4553;1650.806058;0;1650.806058;1650.806058;1650.806058;1650.806058;0;1366
0.324;1444.4553;1650.806058;0;1650.806058;1444.4553;1444.4553;1444.4553;0;1364
0.326;1444.4553;1444.4553;0;1650.806058;1444.4553;1444.4553;1444.4553;0;1363
0.328;1444.4553;1444.4553;0;1650.806058;1444.4553;1444.4553;1444.4553;0;1361
0.33;1444.4553;1444.4553;0;1444.4553;1444.4553;1444.4553;1444.4553;0;1361
0.332;1444.4553;1444.4553;0;1238.104543;1444.4553;1444.4553;1444.4553;0;1361
0.334;1444.4553;1650.806058;0;1444.4553;1444.4553;1444.4553;1444.4553;0;1360
0.336;1444.4553;1650.806058;0;1444.4553;1444.4553;1444.4553;1444.4553;0;1360
0.338;1444.4553;1650.806058;0;1650.806058;1444.4553;1444.4553;1444.4553;0;1359
0.34;1444.4553;1650.806058;0;1650.806058;1650.806058;1650.806058;1650.806058;0;1359
0.342;1444.4553;1444.4553;0;1444.4553;1444.4553;1444.4553;1444.4553;0;1359
0.344;1444.4553;1444.4553;0;1444.4553;1444.4553;1444.4553;1444.4553;0;1359
0.346;1444.4553;1444.4553;0;1444.4553;1444.4553;1444.4553;1444.4553;0;1358
0.348;1444.4553;1444.4553;0;1444.4553;1444.4553;1444.4553;1444.4553;0;1358
0.35;1444.4553;1650.806058;0;1444.4553;1444.4553;1444.4553;1444.4553;0;1358
0.352;1444.4553;1650.806058;0;1650.806058;1444.4553;1444.4553;1444.4553;0;1371
0.354;1444.4553;1650.806058;0;1650.806058;1444.4553;1444.4553;1444.4553;0;1370
0.356;1444.4553;1650.806058;0;1857.156815;1444.4553;1444.4553;1444.4553;0;1369
0.358;1444.4553;1650.806058;0;1650.806058;1650.806058;1650.806058;1650.806058;0;1367
0.36;1444.4553;1650.806058;0;1444.4553;1444.4553;1444.4553;1444.4553;0;1365
0.362;1444.4553;1444.4553;0;1444.4553;1444.4553;1444.4553;1444.4553;0;1364
0.364;1444.4553;1444.4553;0;1444.4553;1444.4553;1444.4553;1444.4553;0;1364
0.366;1444.4553;1650.806058;0;1444.4553;1444.4553;1444.4553;1444.4553;0;1361
0.368;1444.4553;1650.806058;0;1650.806058;1444.4553;1444.4553;1444.4553;0;1361
0.37;1444.4553;1650.806058;0;1650.806058;1650.806058;1650.806058;1650.806058;0;1361
0.372;1444.4553;1650.806058;0;1650.806058;1650.806058;1650.806058;1650.806058;0;1360
0.374;1444.4553;1650.806058;0;1650.806058;1650.806058;1650.806058;1650.806058;0;1360
0.376;1444.4553;1650.806058;0;1650.806058;1444.4553;1444.4553;1444.4553;0;1360
0.378;1444.4553;1444.4553;0;1444.4553;1444.4553;1444.4553;1444.4553;0;1360
0.38;1444.4553;1444.4553;0;1444.4553;1444.4553;1444.4553;1444.4553;0;1360
0.382;1444.4553;1444.4553;0;1444.4553;1444.4553;1444.4553;1444.4553;0;1360
0.384;1444.4553;1444.4553;0;1444.4553;1444.4553;1444.4553;1444.4553;0;1359
0.386;1444.4553;1650.806058;0;1444.4553;1444.4553;1444.4553;1444.4553;0;1359
0.388;1444.4553;1650.806058;0;1650.806058;1444.4553;1444.4553;1444.4553;0;1359
0.39;1444.4553;1650.806058;0;1650.806058;1444.4553;1444.4553;1444.4553;0;1358
0.392;1444.4553;1650.806058;0;1444.4553;1444.4553;1444.4553;1444.4553;0;1373
0.394;1444.4553;1650.806058;0;1650.806058;1444.4553;1444.4553;1444.4553;0;1371
0.396;1444.4553;1650.806058;0;1650.806058;1444.4553;1444.4553;1444.4553;0;1370
0.398;1444.4553;1650.806058;0;1650.806058;1444.4553;1444.4553;1444.4553;0;1368
0.4;1444.4553;1650.806058;0;1650.806058;1444.4553;1444.4553;1444.4553;0;1367
0.402;1444.4553;1444.4553;0;1444.4553;1444.4553;1444.4553;1444.4553;0;1366
0.404;1444.4553;1444.4553;0;1650.806058;1444.4553;1444.4553;1444.4553;0;1379
0.406;1444.4553;1444.4553;0;1238.104543;1444.4553;1444.4553;1444.4553;0;1376
0.408;1444.4553;1444.4553;0;1444.4553;1444.4553;1444.4553;1444.4553;0;1374
0.41;1444.4553;1444.4553;0;1444.4553;1444.4553;1444.4553;1444.4553;0;1373
0.412;1444.4553;1650.806058;0;1650.806058;1444.4553;1444.4553;1444.4553;0;1371
0.414;1444.4553;1650.806058;0;1650.806058;1444.4553;1444.4553;1444.4553;0;1370
0.416;1444.4553;1650.806058;0;1444.4553;1650.806058;1650.806058;1650.806058;0;1369
0.418;1444.4553;1444.4553;0;1444.4553;1444.4553;1444.4553;1444.4553;0;1376
0.42;1444.4553;1444.4553;0;1444.4553;1444.4553;1444.4553;1444.4553;0;1374
0.422;1444.4553;1444.4553;0;1238.104543;1444.4553;1444.4553;1444.4553;0;1373
0.424;1444.4553;1444.4553;0;1238.104543;1444.4553;1444.4553;1444.4553;0;1371
0.426;1444.4553;1650.806058;0;1444.4553;1444.4553;1444.4553;1444.4553;0;1370
0.428;1444.4553;1650.806058;0;1650.806058;1444.4553;1444.4553;1444.4553;0;1381
0.43;1444.4553;1650.806058;0;1650.806058;1444.4553;1444.4553;1444.4553;0;1379
0.432;1444.4553;1650.806058;0;1650.806058;1444.4553;1444.4553;1444.4553;0;1376
0.434;1444.4553;1650.806058;0;1650.806058;1444.4553;1444.4553;1444.4553;0;1374
0.436;1444.4553;1444.4553;0;1444.4553;1444.4553;1444.4553;1444.4553;0;1372
0.438;1444.4553;1444.4553;0;1444.4553;1444.4553;1444.4553;1444.4553;0;1371
0.44;1444.4553;1444.4553;0;1444.4553;1444.4553;1444.4553;1444.4553;0;1369
0.442;1444.4553;1444.4553;0;1444.4553;1444.4553;1444.4553;1444.4553;0;1381
0.444;1444.4553;1650.806058;0;1650.806058;1444.4553;1444.4553;1444.4553;0;1363
0.446;1444.4553;1444.4553;0;1650.806058;1444.4553;1444.4553;1444.4553;0;1362
0.448;1444.4553;1650.806058;0;1650.806058;1444.4553;1444.4553;1444.4553;0;1362
0.45;1444.4553;1650.806058;0;1650.806058;1444.4553;1444.4553;1444.4553;0;1361
0.452;1444.4553;1444.4553;0;1444.4553;1444.4553;1444.4553;1444.4553;0;1361
0.454;1444.4553;1444.4553;0;1444.4553;1444.4553;1444.4553;1444.4553;0;1361
0.456;1444.4553;1444.4553;0;1444.4553;1444.4553;1444.4553;1444.4553;0;1360
0.458;1444.4553;1444.4553;0;1444.4553;1444.4553;1444.4553;1444.4553;0;1360
0.46;1444.4553;1444.4553;0;1444.4553;1444.4553;1444.4553;1444.4553;0;1359
0.462;1444.4553;1650.806058;0;1444.4553;1444.4553;1444.4553;1444.4553;0;1359
0.464;1444.4553;1650.806058;0;1650.806058;1444.4553;1444.4553;1444.4553;0;1358
0.466;1444.4553;1650.806058;0;1650.806058;1650.806058;1650.806058;1650.806058;0;1358
0.468;1444.4553;1650.806058;0;1650.806058;1444.4553;1444.4553;1444.4553;0;1358
0.47;1650.806058;1650.806058;0;1650.806058;1650.806058;1650.806058;1650.806058;0;1357
0.472;0;0;0;0;0;0;0;0;1357
0.474;0;0;0;0;0;0;0;0;1356
0.476;0;0;0;0;0;0;0;0;1356
0.478;0;0;0;0;0;0;0;0;1357
0.48;0;0;0;0;0;0;0;0;1356
0.482;0;0;0;0;0;0;0;0;1356
0.484;0;0;0;0;0;0;0;0;1356
0.486;0;0;0;0;0;0;0;0;1356
0.488;0;0;0;0;0;0;0;0;1355
0.49;0;0;0;0;0;0;0;0;1369
0.492;412.7015144;412.7015144;0;412.7015144;412.7015144;412.7015144;412.7015144;0;1367
0.494;412.7015144;412.7015144;0;412.7015144;412.7015144;412.7015144;412.7015144;0;1366
0.496;1650.806058;1650.806058;0;1650.806058;1650.806058;1650.806058;1650.806058;0;1385
0.498;1031.753786;1031.753786;0;1031.753786;1031.753786;1031.753786;1031.753786;0;1381
0.5;1031.753786;1031.753786;0;1031.753786;1031.753786;1031.753786;1031.753786;0;1378
0.502;825.4030288;825.4030288;0;825.4030288;825.4030288;825.4030288;825.4030288;0;1376
0.504;825.4030288;825.4030288;0;825.4030288;825.4030288;825.4030288;825.4030288;0;1374
0.506;619.0522716;619.0522716;0;619.0522716;619.0522716;619.0522716;619.0522716;0;1372
0.508;619.0522716;619.0522716;0;619.0522716;619.0522716;619.0522716;619.0522716;0;1370
0.51;619.0522716;619.0522716;0;619.0522716;619.0522716;619.0522716;619.0522716;0;1382
0.512;1031.753786;1031.753786;0;1031.753786;1031.753786;1031.753786;1031.753786;0;1379
0.514;825.4030288;825.4030288;0;825.4030288;825.4030288;825.4030288;825.4030288;0;1377
0.516;825.4030288;825.4030288;0;825.4030288;825.4030288;825.4030288;825.4030288;0;1375
0.518;825.4030288;825.4030288;0;825.4030288;825.4030288;825.4030288;825.4030288;0;1373
0.52;619.0522716;619.0522716;0;619.0522716;619.0522716;619.0522716;619.0522716;0;1372
0.522;1650.806058;1650.806058;0;1650.806058;1650.806058;1650.806058;1650.806058;0;1361
0.524;206.3507572;206.3507572;0;206.3507572;206.3507572;206.3507572;206.3507572;0;1361
0.526;206.3507572;206.3507572;0;206.3507572;206.3507572;206.3507572;206.3507572;0;1377
0.528;825.4030288;825.4030288;0;825.4030288;825.4030288;825.4030288;825.4030288;0;1375
0.53;825.4030288;825.4030288;0;825.4030288;825.4030288;825.4030288;825.4030288;0;1373
0.532;619.0522716;619.0522716;0;619.0522716;619.0522716;619.0522716;619.0522716;0;1372
0.534;619.0522716;619.0522716;0;619.0522716;619.0522716;619.0522716;619.0522716;0;1371
0.536;619.0522716;619.0522716;0;619.0522716;619.0522716;619.0522716;619.0522716;0;1370
0.538;619.0522716;619.0522716;0;619.0522716;619.0522716;619.0522716;619.0522716;0;1369
0.54;412.7015144;412.7015144;0;412.7015144;412.7015144;412.7015144;412.7015144;0;1368
0.542;412.7015144;412.7015144;0;412.7015144;412.7015144;412.7015144;412.7015144;0;1367
0.544;412.7015144;412.7015144;0;412.7015144;412.7015144;412.7015144;412.7015144;0;1366
0.546;412.7015144;412.7015144;0;412.7015144;412.7015144;412.7015144;412.7015144;0;1366
0.548;1650.806058;1650.806058;0;1650.806058;1650.806058;1650.806058;1650.806058;0;1376
0.55;825.4030288;825.4030288;0;825.4030288;825.4030288;825.4030288;825.4030288;0;1375
0.552;825.4030288;825.4030288;0;825.4030288;825.4030288;825.4030288;825.4030288;0;1373
0.554;619.0522716;619.0522716;0;619.0522716;619.0522716;619.0522716;619.0522716;0;1373
0.556;619.0522716;619.0522716;0;619.0522716;619.0522716;619.0522716;619.0522716;0;1372
0.558;619.0522716;619.0522716;0;619.0522716;619.0522716;619.0522716;619.0522716;0;1372
0.56;619.0522716;619.0522716;0;619.0522716;619.0522716;619.0522716;619.0522716;0;1371
0.562;619.0522716;619.0522716;0;619.0522716;619.0522716;619.0522716;619.0522716;0;1370
0.564;619.0522716;619.0522716;0;619.0522716;619.0522716;619.0522716;619.0522716;0;1369
0.566;412.7015144;412.7015144;0;412.7015144;412.7015144;412.7015144;412.7015144;0;1368
0.568;412.7015144;412.7015144;0;412.7015144;412.7015144;412.7015144;412.7015144;0;1367
0.57;412.7015144;412.7015144;0;412.7015144;412.7015144;412.7015144;412.7015144;0;1366
0.572;412.7015144;412.7015144;0;412.7015144;412.7015144;412.7015144;412.7015144;0;1381
0.574;1650.806058;1650.806058;0;1650.806058;1650.806058;1650.806058;1650.806058;0;1364
0.576;412.7015144;412.7015144;0;412.7015144;412.7015144;412.7015144;412.7015144;0;1363
0.578;206.3507572;206.3507572;0;206.3507572;206.3507572;206.3507572;206.3507572;0;1363
0.58;206.3507572;206.3507572;0;206.3507572;206.3507572;206.3507572;206.3507572;0;1362
0.582;206.3507572;206.3507572;0;206.3507572;206.3507572;206.3507572;206.3507572;0;1363
0.584;206.3507572;206.3507572;0;206.3507572;206.3507572;206.3507572;206.3507572;0;1362
0.586;206.3507572;206.3507572;0;206.3507572;206.3507572;206.3507572;206.3507572;0;1362
0.588;206.3507572;206.3507572;0;206.3507572;206.3507572;206.3507572;206.3507572;0;1362
0.59;206.3507572;206.3507572;0;206.3507572;206.3507572;206.3507572;206.3507572;0;1362
0.592;206.3507572;206.3507572;0;206.3507572;206.3507572;206.3507572;206.3507572;0;1373
0.594;619.0522716;619.0522716;0;619.0522716;619.0522716;619.0522716;619.0522716;0;1372
0.596;619.0522716;619.0522716;0;619.0522716;619.0522716;619.0522716;619.0522716;0;1370
0.598;619.0522716;619.0522716;0;619.0522716;619.0522716;619.0522716;619.0522716;0;1369
0.6;1650.806058;1650.806058;0;1650.806058;1650.806058;1650.806058;1650.806058;0;1430
0.602;2682.559844;2682.559844;0;2682.559844;2682.559844;2682.559844;2682.559844;0;1434
0.604;2888.910601;2888.910601;0;2888.910601;2888.910601;2888.910601;2888.910601;0;1425
0.606;2682.559844;2682.559844;0;2682.559844;2682.559844;2682.559844;2682.559844;0;1417
0.608;2269.858329;2269.858329;0;2269.858329;2269.858329;2269.858329;2269.858329;0;1411
0.61;2063.507572;2063.507572;0;2063.507572;2063.507572;2063.507572;2063.507572;0;1404
0.612;1857.156815;1857.156815;0;1857.156815;1857.156815;1857.156815;1857.156815;0;1413
0.614;2063.507572;2063.507572;0;2063.507572;2063.507572;2063.507572;2063.507572;0;1407
0.616;1857.156815;1857.156815;0;1857.156815;1857.156815;1857.156815;1857.156815;0;1402
0.618;1650.806058;1650.806058;0;1650.806058;1650.806058;1650.806058;1650.806058;0;1396
0.62;1444.4553;1444.4553;0;1444.4553;1444.4553;1444.4553;1444.4553;0;1392
0.622;1444.4553;1444.4553;0;1444.4553;1444.4553;1444.4553;1444.4553;0;1388
0.624;1238.104543;1238.104543;0;1238.104543;1238.104543;1238.104543;1238.104543;0;1384
0.626;1650.806058;1650.806058;0;1650.806058;1650.806058;1650.806058;1650.806058;0;1370
0.628;619.0522716;619.0522716;0;619.0522716;619.0522716;619.0522716;619.0522716;0;1365
0.63;412.7015144;412.7015144;0;412.7015144;412.7015144;412.7015144;412.7015144;0;1365
0.632;412.7015144;412.7015144;0;412.7015144;412.7015144;412.7015144;412.7015144;0;1365
0.634;412.7015144;412.7015144;0;412.7015144;412.7015144;412.7015144;412.7015144;0;1364
0.636;412.7015144;412.7015144;0;412.7015144;412.7015144;412.7015144;412.7015144;0;1363
0.638;206.3507572;206.3507572;0;206.3507572;206.3507572;206.3507572;206.3507572;0;1363
0.64;206.3507572;206.3507572;0;206.3507572;206.3507572;206.3507572;206.3507572;0;1362
0.642;206.3507572;206.3507572;0;206.3507572;206.3507572;206.3507572;206.3507572;0;1362
0.644;206.3507572;206.3507572;0;206.3507572;206.3507572;206.3507572;206.3507572;0;1363
0.646;206.3507572;206.3507572;0;206.3507572;206.3507572;206.3507572;206.3507572;0;1363
0.648;206.3507572;206.3507572;0;206.3507572;206.3507572;206.3507572;206.3507572;0;1362
0.65;206.3507572;206.3507572;0;206.3507572;206.3507572;206.3507572;206.3507572;0;1362
0.652;1650.806058;1650.806058;0;1650.806058;1650.806058;1650.806058;1650.806058;0;1366
0.654;412.7015144;412.7015144;0;412.7015144;412.7015144;412.7015144;412.7015144;0;1365
0.656;412.7015144;412.7015144;0;412.7015144;412.7015144;412.7015144;412.7015144;0;1365
0.658;412.7015144;412.7015144;0;412.7015144;412.7015144;412.7015144;412.7015144;0;1364
0.66;412.7015144;412.7015144;0;412.7015144;412.7015144;412.7015144;412.7015144;0;1364
0.662;412.7015144;412.7015144;0;412.7015144;412.7015144;412.7015144;412.7015144;0;1363
0.664;206.3507572;206.3507572;0;206.3507572;206.3507572;206.3507572;206.3507572;0;1363
0.666;206.3507572;206.3507572;0;206.3507572;206.3507572;206.3507572;206.3507572;0;1363
0.668;206.3507572;206.3507572;0;206.3507572;206.3507572;206.3507572;206.3507572;0;1362
0.67;206.3507572;206.3507572;0;206.3507572;206.3507572;206.3507572;206.3507572;0;1362
0.672;206.3507572;206.3507572;0;206.3507572;206.3507572;206.3507572;206.3507572;0;1362
0.674;206.3507572;206.3507572;0;206.3507572;206.3507572;206.3507572;206.3507572;0;1361
0.676;206.3507572;206.3507572;0;206.3507572;206.3507572;206.3507572;206.3507572;0;1361
0.678;1650.806058;1650.806058;0;1650.806058;1650.806058;1650.806058;1650.806058;0;1370
0.68;619.0522716;619.0522716;0;619.0522716;619.0522716;619.0522716;619.0522716;0;1369
0.682;412.7015144;412.7015144;0;412.7015144;412.7015144;412.7015144;412.7015144;0;1368
0.684;412.7015144;412.7015144;0;412.7015144;412.7015144;412.7015144;412.7015144;0;1380
0.686;825.4030288;825.4030288;0;825.4030288;825.4030288;825.4030288;825.4030288;0;1378
0.688;825.4030288;825.4030288;0;825.4030288;825.4030288;825.4030288;825.4030288;0;1377
0.69;825.4030288;825.4030288;0;825.4030288;825.4030288;825.4030288;825.4030288;0;1388
0.692;1238.104543;1238.104543;0;1238.104543;1238.104543;1238.104543;1238.104543;0;1384
0.694;1031.753786;1031.753786;0;1031.753786;1031.753786;1031.753786;1031.753786;0;1382
0.696;1031.753786;1031.753786;0;1031.753786;1031.753786;1031.753786;1031.753786;0;1379
0.698;825.4030288;825.4030288;0;825.4030288;825.4030288;825.4030288;825.4030288;0;1377
0.7;825.4030288;825.4030288;0;825.4030288;825.4030288;825.4030288;825.4030288;0;1376
0.702;825.4030288;825.4030288;0;825.4030288;825.4030288;825.4030288;825.4030288;0;1374
0.704;1650.806058;1650.806058;0;1650.806058;1650.806058;1650.806058;1650.806058;0;1366
0.706;412.7015144;412.7015144;0;412.7015144;412.7015144;412.7015144;412.7015144;0;1365
0.708;412.7015144;412.7015144;0;412.7015144;412.7015144;412.7015144;412.7015144;0;1365
0.71;412.7015144;412.7015144;0;412.7015144;412.7015144;412.7015144;412.7015144;0;1364
0.712;412.7015144;412.7015144;0;412.7015144;412.7015144;412.7015144;412.7015144;0;1364
0.714;412.7015144;412.7015144;0;412.7015144;412.7015144;412.7015144;412.7015144;0;1364
0.716;412.7015144;412.7015144;0;412.7015144;412.7015144;412.7015144;412.7015144;0;1369
0.718;412.7015144;412.7015144;0;412.7015144;412.7015144;412.7015144;412.7015144;0;1368
0.72;412.7015144;412.7015144;0;412.7015144;412.7015144;412.7015144;412.7015144;0;1367
0.722;412.7015144;412.7015144;0;412.7015144;412.7015144;412.7015144;412.7015144;0;1367
0.724;412.7015144;412.7015144;0;412.7015144;412.7015144;412.7015144;412.7015144;0;1366
0.726;412.7015144;412.7015144;0;412.7015144;412.7015144;412.7015144;412.7015144;0;1365
0.728;412.7015144;412.7015144;0;412.7015144;412.7015144;412.7015144;412.7015144;0;1366
0.73;1650.806058;1650.806058;0;1650.806058;1650.806058;1650.806058;1650.806058;0;1366
0.732;412.7015144;412.7015144;0;412.7015144;412.7015144;412.7015144;412.7015144;0;1365
0.734;412.7015144;412.7015144;0;412.7015144;412.7015144;412.7015144;412.7015144;0;1365
0.736;412.7015144;412.7015144;0;412.7015144;412.7015144;412.7015144;412.7015144;0;1378
0.738;825.4030288;825.4030288;0;825.4030288;825.4030288;825.4030288;825.4030288;0;1376
0.74;825.4030288;825.4030288;0;825.4030288;825.4030288;825.4030288;825.4030288;0;1375
0.742;825.4030288;825.4030288;0;825.4030288;825.4030288;825.4030288;825.4030288;0;1375
0.744;825.4030288;825.4030288;0;825.4030288;825.4030288;825.4030288;825.4030288;0;1374
0.746;619.0522716;619.0522716;0;619.0522716;619.0522716;619.0522716;619.0522716;0;1373
0.748;619.0522716;619.0522716;0;619.0522716;619.0522716;619.0522716;619.0522716;0;1372
0.75;619.0522716;619.0522716;0;619.0522716;619.0522716;619.0522716;619.0522716;0;1371
0.752;619.0522716;619.0522716;0;619.0522716;619.0522716;619.0522716;619.0522716;0;1370
0.754;619.0522716;619.0522716;0;619.0522716;619.0522716;619.0522716;619.0522716;0;1370
0.756;1650.806058;1650.806058;0;1650.806058;1650.806058;1650.806058;1650.806058;0;1384
0.758;1031.753786;1031.753786;0;1031.753786;1031.753786;1031.753786;1031.753786;0;1383
0.76;1031.753786;1031.753786;0;1031.753786;1031.753786;1031.753786;1031.753786;0;1378
0.762;825.4030288;825.4030288;0;825.4030288;825.4030288;825.4030288;825.4030288;0;1377
0.764;825.4030288;825.4030288;0;825.4030288;825.4030288;825.4030288;825.4030288;0;1378
0.766;825.4030288;825.4030288;0;825.4030288;825.4030288;825.4030288;825.4030288;0;1377
0.768;825.4030288;825.4030288;0;825.4030288;825.4030288;825.4030288;825.4030288;0;1377
0.77;825.4030288;825.4030288;0;825.4030288;825.4030288;825.4030288;825.4030288;0;1376
0.772;825.4030288;825.4030288;0;825.4030288;825.4030288;825.4030288;825.4030288;0;1375
0.774;825.4030288;825.4030288;0;825.4030288;825.4030288;825.4030288;825.4030288;0;1374
0.776;619.0522716;619.0522716;0;619.0522716;619.0522716;619.0522716;619.0522716;0;1374
0.778;619.0522716;619.0522716;0;619.0522716;619.0522716;619.0522716;619.0522716;0;1374
0.78;619.0522716;619.0522716;0;619.0522716;619.0522716;619.0522716;619.0522716;0;1375
0.782;1650.806058;1650.806058;0;1650.806058;1650.806058;1650.806058;1650.806058;0;1391
0.784;1238.104543;1238.104543;0;1238.104543;1238.104543;1238.104543;1238.104543;0;1389
0.786;1238.104543;1238.104543;0;1238.104543;1238.104543;1238.104543;1238.104543;0;1387
0.788;1238.104543;1238.104543;0;1238.104543;1238.104543;1238.104543;1238.104543;0;1386
0.79;1031.753786;1031.753786;0;1031.753786;1031.753786;1031.753786;1031.753786;0;1383
0.792;1031.753786;1031.753786;0;1031.753786;1031.753786;1031.753786;1031.753786;0;1380
0.794;825.4030288;825.4030288;0;825.4030288;825.4030288;825.4030288;825.4030288;0;1380
0.796;825.4030288;825.4030288;0;825.4030288;825.4030288;825.4030288;825.4030288;0;1379
0.798;825.4030288;825.4030288;0;825.4030288;825.4030288;825.4030288;825.4030288;0;1379
0.8;825.4030288;825.4030288;0;825.4030288;825.4030288;825.4030288;825.4030288;0;1379
0.802;825.4030288;825.4030288;0;825.4030288;825.4030288;825.4030288;825.4030288;0;1378
0.804;825.4030288;825.4030288;0;825.4030288;825.4030288;825.4030288;825.4030288;0;1378
0.806;825.4030288;825.4030288;0;825.4030288;825.4030288;825.4030288;825.4030288;0;1378
0.808;1650.806058;1650.806058;0;1650.806058;1650.806058;1650.806058;1650.806058;0;1409
0.81;2063.507572;2063.507572;0;2063.507572;2063.507572;2063.507572;2063.507572;0;1404
0.812;1857.156815;1857.156815;0;1857.156815;1857.156815;1857.156815;1857.156815;0;1400
0.814;1650.806058;1650.806058;0;1650.806058;1650.806058;1650.806058;1650.806058;0;1396
0.816;1444.4553;1444.4553;0;1444.4553;1444.4553;1444.4553;1444.4553;0;1394
0.818;1444.4553;1444.4553;0;1444.4553;1444.4553;1444.4553;1444.4553;0;1406
0.82;1857.156815;1857.156815;0;1857.156815;1857.156815;1857.156815;1857.156815;0;1403
0.822;1857.156815;1857.156815;0;1857.156815;1857.156815;1857.156815;1857.156815;0;1400
0.824;1650.806058;1650.806058;0;1650.806058;1650.806058;1650.806058;1650.806058;0;1393
0.826;1444.4553;1444.4553;0;1444.4553;1444.4553;1444.4553;1444.4553;0;1391
0.828;1238.104543;1238.104543;0;1238.104543;1238.104543;1238.104543;1238.104543;0;1389
0.83;1238.104543;1238.104543;0;1238.104543;1238.104543;1238.104543;1238.104543;0;1402
0.832;1650.806058;1650.806058;0;1650.806058;1650.806058;1650.806058;1650.806058;0;1398
0.834;1650.806058;1650.806058;0;1650.806058;1650.806058;1650.806058;1650.806058;0;1405
0.836;1857.156815;1857.156815;0;1857.156815;1857.156815;1857.156815;1857.156815;0;1403
0.838;1857.156815;1857.156815;0;1857.156815;1857.156815;1857.156815;1857.156815;0;1400
0.84;1650.806058;1650.806058;0;1650.806058;1650.806058;1650.806058;1650.806058;0;1396
0.842;1444.4553;1444.4553;0;1444.4553;1444.4553;1444.4553;1444.4553;0;1393
0.844;1444.4553;1444.4553;0;1444.4553;1444.4553;1444.4553;1444.4553;0;1406
0.846;1857.156815;1857.156815;0;1857.156815;1857.156815;1857.156815;1857.156815;0;1402
0.848;1650.806058;1650.806058;0;1650.806058;1650.806058;1650.806058;1650.806058;0;1399
0.85;1650.806058;1650.806058;0;1650.806058;1650.806058;1650.806058;1650.806058;0;1395
0.852;1444.4553;1444.4553;0;1444.4553;1444.4553;1444.4553;1444.4553;0;1393
0.854;1444.4553;1444.4553;0;1444.4553;1444.4553;1444.4553;1444.4553;0;1391
0.856;1238.104543;1238.104543;0;1238.104543;1238.104543;1238.104543;1238.104543;0;1388
0.858;1238.104543;1238.104543;0;1238.104543;1238.104543;1238.104543;1238.104543;0;1387
0.86;1650.806058;1650.806058;0;1650.806058;1650.806058;1650.806058;1650.806058;0;1384
0.862;1031.753786;1031.753786;0;1031.753786;1031.753786;1031.753786;1031.753786;0;1383
0.864;1031.753786;1031.753786;0;1031.753786;1031.753786;1031.753786;1031.753786;0;1397
0.866;1444.4553;1444.4553;0;1444.4553;1444.4553;1444.4553;1444.4553;0;1394
0.868;1444.4553;1444.4553;0;1444.4553;1444.4553;1444.4553;1444.4553;0;1393
0.87;1444.4553;1444.4553;0;1444.4553;1444.4553;1444.4553;1444.4553;0;1404
0.872;1857.156815;1857.156815;0;1857.156815;1857.156815;1857.156815;1857.156815;0;1400
0.874;1650.806058;1650.806058;0;1650.806058;1650.806058;1650.806058;1650.806058;0;1398
0.876;1650.806058;1650.806058;0;1650.806058;1650.806058;1650.806058;1650.806058;0;1395
0.878;1444.4553;1444.4553;0;1444.4553;1444.4553;1444.4553;1444.4553;0;1392
0.88;1444.4553;1444.4553;0;1444.4553;1444.4553;1444.4553;1444.4553;0;1406
0.882;1857.156815;1857.156815;0;1857.156815;1857.156815;1857.156815;1857.156815;0;1402
0.884;1650.806058;1650.806058;0;1650.806058;1650.806058;1650.806058;1650.806058;0;1399
0.886;1650.806058;1650.806058;0;1650.806058;1650.806058;1650.806058;1650.806058;0;1395
0.888;1444.4553;1444.4553;0;1444.4553;1444.4553;1444.4553;1444.4553;0;1392
0.89;1444.4553;1444.4553;0;1444.4553;1444.4553;1444.4553;1444.4553;0;1390
0.892;1238.104543;1238.104543;0;1238.104543;1238.104543;1238.104543;1238.104543;0;1388
0.894;1238.104543;1238.104543;0;1238.104543;1238.104543;1238.104543;1238.104543;0;1401
0.896;1650.806058;1650.806058;0;1650.806058;1650.806058;1650.806058;1650.806058;0;1398
0.898;1650.806058;1650.806058;0;1650.806058;1650.806058;1650.806058;1650.806058;0;1395
0.9;1444.4553;1444.4553;0;1444.4553;1444.4553;1444.4553;1444.4553;0;1392
0.902;1444.4553;1444.4553;0;1444.4553;1444.4553;1444.4553;1444.4553;0;1390
0.904;1238.104543;1238.104543;0;1238.104543;1238.104543;1238.104543;1238.104543;0;1387
0.906;1238.104543;1238.104543;0;1238.104543;1238.104543;1238.104543;1238.104543;0;1386
0.908;1031.753786;1031.753786;0;1031.753786;1031.753786;1031.753786;1031.753786;0;1384
0.91;1031.753786;1031.753786;0;1031.753786;1031.753786;1031.753786;1031.753786;0;1396
0.912;1650.806058;1650.806058;0;1650.806058;1650.806058;1650.806058;1650.806058;0;1391
0.914;1238.104543;1238.104543;0;1238.104543;1238.104543;1238.104543;1238.104543;0;1389
0.916;1238.104543;1238.104543;0;1238.104543;1238.104543;1238.104543;1238.104543;0;1387
0.918;1238.104543;1238.104543;0;1238.104543;1238.104543;1238.104543;1238.104543;0;1386
0.92;1031.753786;1031.753786;0;1031.753786;1031.753786;1031.753786;1031.753786;0;1385
0.922;1031.753786;1031.753786;0;1031.753786;1031.753786;1031.753786;1031.753786;0;1384
0.924;1031.753786;1031.753786;0;1031.753786;1031.753786;1031.753786;1031.753786;0;1382
0.926;1031.753786;1031.753786;0;1031.753786;1031.753786;1031.753786;1031.753786;0;1381
0.928;1031.753786;1031.753786;0;1031.753786;1031.753786;1031.753786;1031.753786;0;1379
0.93;825.4030288;825.4030288;0;825.4030288;825.4030288;825.4030288;825.4030288;0;1393
0.932;1444.4553;1444.4553;0;1444.4553;1444.4553;1444.4553;1444.4553;0;1390
0.934;1238.104543;1238.104543;0;1238.104543;1238.104543;1238.104543;1238.104543;0;1388
0.936;1238.104543;1238.104543;0;1238.104543;1238.104543;1238.104543;1238.104543;0;1386
0.938;1650.806058;1650.806058;0;1650.806058;1650.806058;1650.806058;1650.806058;0;1384
0.94;1031.753786;1031.753786;0;1031.753786;1031.753786;1031.753786;1031.753786;0;1380
0.942;825.4030288;825.4030288;0;825.4030288;825.4030288;825.4030288;825.4030288;0;1393
0.944;1444.4553;1444.4553;0;1444.4553;1444.4553;1444.4553;1444.4553;0;1405
0.946;1857.156815;1857.156815;0;1857.156815;1857.156815;1857.156815;1857.156815;0;1416
0.948;2269.858329;2269.858329;0;2269.858329;2269.858329;2269.858329;2269.858329;0;1426
0.95;2682.559844;2682.559844;0;2682.559844;2682.559844;2682.559844;2682.559844;0;1434
0.952;2888.910601;2888.910601;0;2888.910601;2888.910601;2888.910601;2888.910601;0;1442
0.954;0;0;0;0;0;0;0;0;1450
0.956;206.3507572;206.3507572;0;206.3507572;206.3507572;206.3507572;206.3507572;0;1455
0.958;412.7015144;412.7015144;0;412.7015144;412.7015144;412.7015144;412.7015144;0;1461
0.96;619.0522716;619.0522716;0;619.0522716;619.0522716;619.0522716;619.0522716;0;1466
0.962;825.4030288;825.4030288;0;825.4030288;825.4030288;825.4030288;825.4030288;0;1470
0.964;1650.806058;1650.806058;0;1650.806058;1650.806058;1650.806058;1650.806058;0;1462
0.966;619.0522716;619.0522716;0;619.0522716;619.0522716;619.0522716;619.0522716;0;1450
0.968;206.3507572;206.3507572;0;206.3507572;206.3507572;206.3507572;206.3507572;0;1454
0.97;412.7015144;412.7015144;0;412.7015144;412.7015144;412.7015144;412.7015144;0;1459
0.972;619.0522716;619.0522716;0;619.0522716;619.0522716;619.0522716;619.0522716;0;1461
0.974;619.0522716;619.0522716;0;619.0522716;619.0522716;619.0522716;619.0522716;0;1467
0.976;825.4030288;825.4030288;0;825.4030288;825.4030288;825.4030288;825.4030288;0;1471
0.978;1031.753786;1031.753786;0;1031.753786;1031.753786;1031.753786;1031.753786;0;1475
0.98;1238.104543;1238.104543;0;1238.104543;1238.104543;1238.104543;1238.104543;0;1478
0.982;1238.104543;1238.104543;0;1238.104543;1238.104543;1238.104543;1238.104543;0;1481
0.984;1444.4553;1444.4553;0;1444.4553;1444.4553;1444.4553;1444.4553;0;1481
0.986;1444.4553;1444.4553;0;1444.4553;1444.4553;1444.4553;1444.4553;0;1484
0.988;1444.4553;1444.4553;0;1444.4553;1444.4553;1444.4553;1444.4553;0;1483
0.99;1650.806058;1650.806058;0;1650.806058;1650.806058;1650.806058;1650.806058;0;1472
0.992;1031.753786;1031.753786;0;1031.753786;1031.753786;1031.753786;1031.753786;0;1459
0.994;619.0522716;619.0522716;0;619.0522716;619.0522716;619.0522716;619.0522716;0;1463
0.996;619.0522716;619.0522716;0;619.0522716;619.0522716;619.0522716;619.0522716;0;1468
0.998;825.4030288;825.4030288;0;825.4030288;825.4030288;825.4030288;825.4030288;0;1470
1;1031.753786;1031.753786;0;1031.753786;1031.753786;1031.753786;1031.753786;0;1474
1.002;1031.753786;1031.753786;0;1031.753786;1031.753786;1031.753786;1031.753786;0;1475
1.004;1238.104543;1238.104543;0;1238.104543;1238.104543;1238.104543;1238.104543;0;1478
1.006;1238.104543;1238.104543;0;1238.104543;1238.104543;1238.104543;1238.104543;0;1481
1.008;1444.4553;1444.4553;0;1444.4553;1444.4553;1444.4553;1444.4553;0;1484
1.01;1444.4553;1444.4553;0;1444.4553;1444.4553;1444.4553;1444.4553;0;1486
1.012;1444.4553;1444.4553;0;1444.4553;1444.4553;1444.4553;1444.4553;0;1488
1.014;1650.806058;1650.806058;0;1650.806058;1650.806058;1650.806058;1650.806058;0;1491
1.016;1650.806058;1650.806058;0;1650.806058;1650.806058;1650.806058;1650.806058;0;1475
1.018;1238.104543;1238.104543;0;1238.104543;1238.104543;1238.104543;1238.104543;0;1462
1.02;619.0522716;619.0522716;0;619.0522716;619.0522716;619.0522716;619.0522716;0;1467
1.022;825.4030288;825.4030288;0;825.4030288;825.4030288;825.4030288;825.4030288;0;1470
1.024;1031.753786;1031.753786;0;1031.753786;1031.753786;1031.753786;1031.753786;0;1474
1.026;1031.753786;1031.753786;0;1031.753786;1031.753786;1031.753786;1031.753786;0;1477
1.028;1238.104543;1238.104543;0;1238.104543;1238.104543;1238.104543;1238.104543;0;1480
1.03;1238.104543;1238.104543;0;1238.104543;1238.104543;1238.104543;1238.104543;0;1482
1.032;1444.4553;1444.4553;0;1444.4553;1444.4553;1444.4553;1444.4553;0;1485
1.034;1444.4553;1444.4553;0;1444.4553;1444.4553;1444.4553;1444.4553;0;1487
1.036;1650.806058;1650.806058;0;1650.806058;1650.806058;1650.806058;1650.806058;0;1487
1.038;1650.806058;1650.806058;0;1650.806058;1650.806058;1650.806058;1650.806058;0;1489
1.04;1650.806058;1650.806058;0;1650.806058;1650.806058;1650.806058;1650.806058;0;1490
1.042;1650.806058;1650.806058;0;1650.806058;1650.806058;1650.806058;1650.806058;0;1476
1.044;1238.104543;1238.104543;0;1238.104543;1238.104543;1238.104543;1238.104543;0;1462
1.046;619.0522716;619.0522716;0;619.0522716;619.0522716;619.0522716;619.0522716;0;1467
1.048;825.4030288;825.4030288;0;825.4030288;825.4030288;825.4030288;825.4030288;0;1470
1.05;1031.753786;1031.753786;0;1031.753786;1031.753786;1031.753786;1031.753786;0;1473
1.052;1031.753786;1031.753786;0;1031.753786;1031.753786;1031.753786;1031.753786;0;1476
1.054;1238.104543;1238.104543;0;1238.104543;1238.104543;1238.104543;1238.104543;0;1479
1.056;1238.104543;1238.104543;0;1238.104543;1238.104543;1238.104543;1238.104543;0;1482
1.058;1444.4553;1444.4553;0;1444.4553;1444.4553;1444.4553;1444.4553;0;1485
1.06;1444.4553;1444.4553;0;1444.4553;1444.4553;1444.4553;1444.4553;0;1487
1.062;1650.806058;1650.806058;0;1650.806058;1650.806058;1650.806058;1650.806058;0;1487
1.064;1650.806058;1650.806058;0;1650.806058;1650.806058;1650.806058;1650.806058;0;1495
1.066;1857.156815;1857.156815;0;1857.156815;1857.156815;1857.156815;1857.156815;0;1493
1.068;1650.806058;1650.806058;0;1650.806058;1650.806058;1650.806058;1650.806058;0;1476
1.07;1238.104543;1238.104543;0;1238.104543;1238.104543;1238.104543;1238.104543;0;1461
1.072;619.0522716;619.0522716;0;619.0522716;619.0522716;619.0522716;619.0522716;0;1467
1.074;825.4030288;825.4030288;0;825.4030288;825.4030288;825.4030288;825.4030288;0;1471
1.076;1031.753786;1031.753786;0;1031.753786;1031.753786;1031.753786;1031.753786;0;1474
1.078;1031.753786;1031.753786;0;1031.753786;1031.753786;1031.753786;1031.753786;0;1476
1.08;1238.104543;1238.104543;0;1238.104543;1238.104543;1238.104543;1238.104543;0;1478
1.082;1238.104543;1238.104543;0;1238.104543;1238.104543;1238.104543;1238.104543;0;1481
1.084;1444.4553;1444.4553;0;1444.4553;1444.4553;1444.4553;1444.4553;0;1483
1.086;1444.4553;1444.4553;0;1444.4553;1444.4553;1444.4553;1444.4553;0;1485
1.088;1444.4553;1444.4553;0;1444.4553;1444.4553;1444.4553;1444.4553;0;1486
1.09;1444.4553;1444.4553;0;1444.4553;1444.4553;1444.4553;1444.4553;0;1485
1.092;1444.4553;1444.4553;0;1444.4553;1444.4553;1444.4553;1444.4553;0;1488
1.094;1650.806058;1650.806058;0;1650.806058;1650.806058;1650.806058;1650.806058;0;1474
1.096;1031.753786;1031.753786;0;1031.753786;1031.753786;1031.753786;1031.753786;0;1461
1.098;619.0522716;619.0522716;0;619.0522716;619.0522716;619.0522716;619.0522716;0;1465
1.1;825.4030288;825.4030288;0;825.4030288;825.4030288;825.4030288;825.4030288;0;1470
1.102;1031.753786;1031.753786;0;1031.753786;1031.753786;1031.753786;1031.753786;0;1473
1.104;1031.753786;1031.753786;0;1031.753786;1031.753786;1031.753786;1031.753786;0;1477
1.106;1238.104543;1238.104543;0;1238.104543;1238.104543;1238.104543;1238.104543;0;1478
1.108;1238.104543;1238.104543;0;1238.104543;1238.104543;1238.104543;1238.104543;0;1479
1.11;1238.104543;1238.104543;0;1238.104543;1238.104543;1238.104543;1238.104543;0;1481
1.112;1444.4553;1444.4553;0;1444.4553;1444.4553;1444.4553;1444.4553;0;1484
1.114;1444.4553;1444.4553;0;1444.4553;1444.4553;1444.4553;1444.4553;0;1486
1.116;1444.4553;1444.4553;0;1444.4553;1444.4553;1444.4553;1444.4553;0;1487
1.118;1650.806058;1650.806058;0;1650.806058;1650.806058;1650.806058;1650.806058;0;1489
1.12;1650.806058;1650.806058;0;1650.806058;1650.806058;1650.806058;1650.806058;0;1472
1.122;1031.753786;1031.753786;0;1031.753786;1031.753786;1031.753786;1031.753786;0;1457
1.124;412.7015144;412.7015144;0;412.7015144;412.7015144;412.7015144;412.7015144;0;1462
1.126;619.0522716;619.0522716;0;619.0522716;619.0522716;619.0522716;619.0522716;0;1466
1.128;825.4030288;825.4030288;0;825.4030288;825.4030288;825.4030288;825.4030288;0;1470
1.13;1031.753786;1031.753786;0;1031.753786;1031.753786;1031.753786;1031.753786;0;1473
1.132;1031.753786;1031.753786;0;1031.753786;1031.753786;1031.753786;1031.753786;0;1475
1.134;1238.104543;1238.104543;0;1238.104543;1238.104543;1238.104543;1238.104543;0;1479
1.136;1238.104543;1238.104543;0;1238.104543;1238.104543;1238.104543;1238.104543;0;1480
1.138;1238.104543;1238.104543;0;1238.104543;1238.104543;1238.104543;1238.104543;0;1483
1.14;1444.4553;1444.4553;0;1444.4553;1444.4553;1444.4553;1444.4553;0;1483
1.142;1444.4553;1444.4553;0;1444.4553;1444.4553;1444.4553;1444.4553;0;1484
1.144;1444.4553;1444.4553;0;1444.4553;1444.4553;1444.4553;1444.4553;0;1484
1.146;1650.806058;1650.806058;0;1650.806058;1650.806058;1650.806058;1650.806058;0;1470
1.148;1031.753786;1031.753786;0;1031.753786;1031.753786;1031.753786;1031.753786;0;1456
1.15;412.7015144;412.7015144;0;412.7015144;412.7015144;412.7015144;412.7015144;0;1459
1.152;619.0522716;619.0522716;0;619.0522716;619.0522716;619.0522716;619.0522716;0;1465
1.154;825.4030288;825.4030288;0;825.4030288;825.4030288;825.4030288;825.4030288;0;1470
1.156;1031.753786;1031.753786;0;1031.753786;1031.753786;1031.753786;1031.753786;0;1473
1.158;1031.753786;1031.753786;0;1031.753786;1031.753786;1031.753786;1031.753786;0;1475
1.16;1238.104543;1238.104543;0;1238.104543;1238.104543;1238.104543;1238.104543;0;1479
1.162;1238.104543;1238.104543;0;1238.104543;1238.104543;1238.104543;1238.104543;0;1483
1.164;1444.4553;1444.4553;0;1444.4553;1444.4553;1444.4553;1444.4553;0;1483
1.166;1444.4553;1444.4553;0;1444.4553;1444.4553;1444.4553;1444.4553;0;1486
1.168;1444.4553;1444.4553;0;1444.4553;1444.4553;1444.4553;1444.4553;0;1488
1.17;1650.806058;1650.806058;0;1650.806058;1650.806058;1650.806058;1650.806058;0;1489
1.172;1650.806058;1650.806058;0;1650.806058;1650.806058;1650.806058;1650.806058;0;1477
1.174;1238.104543;1238.104543;0;1238.104543;1238.104543;1238.104543;1238.104543;0;1462
1.176;619.0522716;619.0522716;0;619.0522716;619.0522716;619.0522716;619.0522716;0;1464
1.178;825.4030288;825.4030288;0;825.4030288;825.4030288;825.4030288;825.4030288;0;1469
1.18;825.4030288;825.4030288;0;825.4030288;825.4030288;825.4030288;825.4030288;0;1472
1.182;1031.753786;1031.753786;0;1031.753786;1031.753786;1031.753786;1031.753786;0;1475
1.184;1238.104543;1238.104543;0;1238.104543;1238.104543;1238.104543;1238.104543;0;1477
1.186;1238.104543;1238.104543;0;1238.104543;1238.104543;1238.104543;1238.104543;0;1477
1.188;1238.104543;1238.104543;0;1238.104543;1238.104543;1238.104543;1238.104543;0;1481
1.19;1444.4553;1444.4553;0;1444.4553;1444.4553;1444.4553;1444.4553;0;1481
1.192;1444.4553;1444.4553;0;1444.4553;1444.4553;1444.4553;1444.4553;0;1483
1.194;1444.4553;1444.4553;0;1444.4553;1444.4553;1444.4553;1444.4553;0;1485
1.196;1444.4553;1444.4553;0;1444.4553;1444.4553;1444.4553;1444.4553;0;1487
1.198;1650.806058;1650.806058;0;1650.806058;1650.806058;1650.806058;1650.806058;0;1472
1.2;1031.753786;1031.753786;0;1031.753786;1031.753786;1031.753786;1031.753786;0;1458
1.202;412.7015144;412.7015144;0;412.7015144;412.7015144;412.7015144;412.7015144;0;1463
1.204;619.0522716;619.0522716;0;619.0522716;619.0522716;619.0522716;619.0522716;0;1465
1.206;825.4030288;825.4030288;0;825.4030288;825.4030288;825.4030288;825.4030288;0;1469
1.208;825.4030288;825.4030288;0;825.4030288;825.4030288;825.4030288;825.4030288;0;1472
1.21;1031.753786;1031.753786;0;1031.753786;1031.753786;1031.753786;1031.753786;0;1474
1.212;1031.753786;1031.753786;0;1031.753786;1031.753786;1031.753786;1031.753786;0;1478
1.214;1238.104543;1238.104543;0;1238.104543;1238.104543;1238.104543;1238.104543;0;1481
1.216;1444.4553;1444.4553;0;1444.4553;1444.4553;1444.4553;1444.4553;0;1482
1.218;1444.4553;1444.4553;0;1444.4553;1444.4553;1444.4553;1444.4553;0;1484
1.22;1444.4553;1444.4553;0;1444.4553;1444.4553;1444.4553;1444.4553;0;1486
1.222;1444.4553;1444.4553;0;1444.4553;1444.4553;1444.4553;1444.4553;0;1486
1.224;1650.806058;1650.806058;0;1650.806058;1650.806058;1650.806058;1650.806058;0;1469
1.226;825.4030288;825.4030288;0;825.4030288;825.4030288;825.4030288;825.4030288;0;1455
1.228;412.7015144;412.7015144;0;412.7015144;412.7015144;412.7015144;412.7015144;0;1458
1.23;412.7015144;412.7015144;0;412.7015144;412.7015144;412.7015144;412.7015144;0;1461
1.232;619.0522716;619.0522716;0;619.0522716;619.0522716;619.0522716;619.0522716;0;1464
1.234;825.4030288;825.4030288;0;825.4030288;825.4030288;825.4030288;825.4030288;0;1467
1.236;825.4030288;825.4030288;0;825.4030288;825.4030288;825.4030288;825.4030288;0;1468
1.238;825.4030288;825.4030288;0;825.4030288;825.4030288;825.4030288;825.4030288;0;1472
1.24;1031.753786;1031.753786;0;1031.753786;1031.753786;1031.753786;1031.753786;0;1475
1.242;1238.104543;1238.104543;0;1238.104543;1238.104543;1238.104543;1238.104543;0;1477
1.244;1238.104543;1238.104543;0;1238.104543;1238.104543;1238.104543;1238.104543;0;1479
1.246;1238.104543;1238.104543;0;1238.104543;1238.104543;1238.104543;1238.104543;0;1482
1.248;1444.4553;1444.4553;0;1444.4553;1444.4553;1444.4553;1444.4553;0;1483
1.25;1650.806058;1650.806058;0;1650.806058;1650.806058;1650.806058;1650.806058;0;1469
1.252;825.4030288;825.4030288;0;825.4030288;825.4030288;825.4030288;825.4030288;0;1455
1.254;412.7015144;412.7015144;0;412.7015144;412.7015144;412.7015144;412.7015144;0;1460
1.256;619.0522716;619.0522716;0;619.0522716;619.0522716;619.0522716;619.0522716;0;1464
1.258;825.4030288;825.4030288;0;825.4030288;825.4030288;825.4030288;825.4030288;0;1468
1.26;825.4030288;825.4030288;0;825.4030288;825.4030288;825.4030288;825.4030288;0;1471
1.262;1031.753786;1031.753786;0;1031.753786;1031.753786;1031.753786;1031.753786;0;1474
1.264;1031.753786;1031.753786;0;1031.753786;1031.753786;1031.753786;1031.753786;0;1478
1.266;1238.104543;1238.104543;0;1238.104543;1238.104543;1238.104543;1238.104543;0;1481
1.268;1444.4553;1444.4553;0;1444.4553;1444.4553;1444.4553;1444.4553;0;1483
1.27;1444.4553;1444.4553;0;1444.4553;1444.4553;1444.4553;1444.4553;0;1485
1.272;1444.4553;1444.4553;0;1444.4553;1444.4553;1444.4553;1444.4553;0;1486
1.274;1444.4553;1444.4553;0;1444.4553;1444.4553;1444.4553;1444.4553;0;1487
1.276;1650.806058;1650.806058;0;1650.806058;1650.806058;1650.806058;1650.806058;0;1472
1.278;1031.753786;1031.753786;0;1031.753786;1031.753786;1031.753786;1031.753786;0;1458
1.28;412.7015144;412.7015144;0;412.7015144;412.7015144;412.7015144;412.7015144;0;1463
1.282;619.0522716;619.0522716;0;619.0522716;619.0522716;619.0522716;619.0522716;0;1469
1.284;825.4030288;825.4030288;0;825.4030288;825.4030288;825.4030288;825.4030288;0;1472
1.286;1031.753786;1031.753786;0;1031.753786;1031.753786;1031.753786;1031.753786;0;1474
1.288;1031.753786;1031.753786;0;1031.753786;1031.753786;1031.753786;1031.753786;0;1476
1.29;1238.104543;1238.104543;0;1238.104543;1238.104543;1238.104543;1238.104543;0;1479
1.292;1238.104543;1238.104543;0;1238.104543;1238.104543;1238.104543;1238.104543;0;1481
1.294;1444.4553;1444.4553;0;1444.4553;1444.4553;1444.4553;1444.4553;0;1483
1.296;1444.4553;1444.4553;0;1444.4553;1444.4553;1444.4553;1444.4553;0;1483
1.298;1444.4553;1444.4553;0;1444.4553;1444.4553;1444.4553;1444.4553;0;1485
1.3;1444.4553;1444.4553;0;1444.4553;1444.4553;1444.4553;1444.4553;0;1483
1.302;1650.806058;1650.806058;0;1650.806058;1650.806058;1650.806058;1650.806058;0;1469
1.304;825.4030288;825.4030288;0;825.4030288;825.4030288;825.4030288;825.4030288;0;1454
1.306;412.7015144;412.7015144;0;412.7015144;412.7015144;412.7015144;412.7015144;0;1460
1.308;619.0522716;619.0522716;0;619.0522716;619.0522716;619.0522716;619.0522716;0;1463
1.31;619.0522716;619.0522716;0;619.0522716;619.0522716;619.0522716;619.0522716;0;1462
1.312;619.0522716;619.0522716;0;619.0522716;619.0522716;619.0522716;619.0522716;0;1466
1.314;825.4030288;825.4030288;0;825.4030288;825.4030288;825.4030288;825.4030288;0;1471
1.316;1031.753786;1031.753786;0;1031.753786;1031.753786;1031.753786;1031.753786;0;1474
1.318;1031.753786;1031.753786;0;1031.753786;1031.753786;1031.753786;1031.753786;0;1477
1.32;1238.104543;1238.104543;0;1238.104543;1238.104543;1238.104543;1238.104543;0;1479
1.322;1238.104543;1238.104543;0;1238.104543;1238.104543;1238.104543;1238.104543;0;1481
1.324;1444.4553;1444.4553;0;1444.4553;1444.4553;1444.4553;1444.4553;0;1482
1.326;1444.4553;1444.4553;0;1444.4553;1444.4553;1444.4553;1444.4553;0;1484
1.328;1650.806058;1650.806058;0;1650.806058;1650.806058;1650.806058;1650.806058;0;1489
1.33;1650.806058;1650.806058;0;1650.806058;1650.806058;1650.806058;1650.806058;0;1490
1.332;1650.806058;1650.806058;0;1650.806058;1650.806058;1650.806058;1650.806058;0;1474
1.334;1031.753786;1031.753786;0;1031.753786;1031.753786;1031.753786;1031.753786;0;1476
1.336;1238.104543;1238.104543;0;1238.104543;1238.104543;1238.104543;1238.104543;0;1478
1.338;1238.104543;1238.104543;0;1238.104543;1238.104543;1238.104543;1238.104543;0;1478
1.34;1238.104543;1238.104543;0;1238.104543;1238.104543;1238.104543;1238.104543;0;1480
1.342;1238.104543;1238.104543;0;1238.104543;1238.104543;1238.104543;1238.104543;0;1482
1.344;1444.4553;1444.4553;0;1444.4553;1444.4553;1444.4553;1444.4553;0;1485
1.346;1444.4553;1444.4553;0;1444.4553;1444.4553;1444.4553;1444.4553;0;1487
1.348;1650.806058;1650.806058;0;1650.806058;1650.806058;1650.806058;1650.806058;0;1488
1.35;1650.806058;1650.806058;0;1650.806058;1650.806058;1650.806058;1650.806058;0;1489
1.352;1650.806058;1650.806058;0;1650.806058;1650.806058;1650.806058;1650.806058;0;1490
1.354;1650.806058;1650.806058;0;1650.806058;1650.806058;1650.806058;1650.806058;0;1472
1.356;1031.753786;1031.753786;0;1031.753786;1031.753786;1031.753786;1031.753786;0;1458
1.358;412.7015144;412.7015144;0;412.7015144;412.7015144;412.7015144;412.7015144;0;1460
1.36;619.0522716;619.0522716;0;619.0522716;619.0522716;619.0522716;619.0522716;0;1464
1.362;825.4030288;825.4030288;0;825.4030288;825.4030288;825.4030288;825.4030288;0;1467
1.364;825.4030288;825.4030288;0;825.4030288;825.4030288;825.4030288;825.4030288;0;1471
1.366;1031.753786;1031.753786;0;1031.753786;1031.753786;1031.753786;1031.753786;0;1474
1.368;1031.753786;1031.753786;0;1031.753786;1031.753786;1031.753786;1031.753786;0;1477
1.37;1238.104543;1238.104543;0;1238.104543;1238.104543;1238.104543;1238.104543;0;1479
1.372;1238.104543;1238.104543;0;1238.104543;1238.104543;1238.104543;1238.104543;0;1482
1.374;1444.4553;1444.4553;0;1444.4553;1444.4553;1444.4553;1444.4553;0;1485
1.376;1444.4553;1444.4553;0;1444.4553;1444.4553;1444.4553;1444.4553;0;1487
1.378;1650.806058;1650.806058;0;1650.806058;1650.806058;1650.806058;1650.806058;0;1489
1.38;1650.806058;1650.806058;0;1650.806058;1650.806058;1650.806058;1650.806058;0;1474
1.382;1031.753786;1031.753786;0;1031.753786;1031.753786;1031.753786;1031.753786;0;1459
1.384;619.0522716;619.0522716;0;619.0522716;619.0522716;619.0522716;619.0522716;0;1463
1.386;619.0522716;619.0522716;0;619.0522716;619.0522716;619.0522716;619.0522716;0;1468
1.388;825.4030288;825.4030288;0;825.4030288;825.4030288;825.4030288;825.4030288;0;1473
1.39;1031.753786;1031.753786;0;1031.753786;1031.753786;1031.753786;1031.753786;0;1476
1.392;1238.104543;1238.104543;0;1238.104543;1238.104543;1238.104543;1238.104543;0;1476
1.394;1238.104543;1238.104543;0;1238.104543;1238.104543;1238.104543;1238.104543;0;1478
1.396;1238.104543;1238.104543;0;1238.104543;1238.104543;1238.104543;1238.104543;0;1481
1.398;1444.4553;1444.4553;0;1444.4553;1444.4553;1444.4553;1444.4553;0;1483
1.4;1444.4553;1444.4553;0;1444.4553;1444.4553;1444.4553;1444.4553;0;1482
1.402;1444.4553;1444.4553;0;1444.4553;1444.4553;1444.4553;1444.4553;0;1484
1.404;1444.4553;1444.4553;0;1444.4553;1444.4553;1444.4553;1444.4553;0;1486
1.406;1650.806058;1650.806058;0;1650.806058;1650.806058;1650.806058;1650.806058;0;1469
1.408;825.4030288;825.4030288;0;825.4030288;825.4030288;825.4030288;825.4030288;0;1473
1.41;1031.753786;1031.753786;0;1031.753786;1031.753786;1031.753786;1031.753786;0;1475
1.412;1238.104543;1238.104543;0;1238.104543;1238.104543;1238.104543;1238.104543;0;1478
1.414;1238.104543;1238.104543;0;1238.104543;1238.104543;1238.104543;1238.104543;0;1480
1.416;1238.104543;1238.104543;0;1238.104543;1238.104543;1238.104543;1238.104543;0;1483
1.418;1444.4553;1444.4553;0;1444.4553;1444.4553;1444.4553;1444.4553;0;1485
1.42;1444.4553;1444.4553;0;1444.4553;1444.4553;1444.4553;1444.4553;0;1485
1.422;1444.4553;1444.4553;0;1444.4553;1444.4553;1444.4553;1444.4553;0;1487
1.424;1650.806058;1650.806058;0;1650.806058;1650.806058;1650.806058;1650.806058;0;1489
1.426;1650.806058;1650.806058;0;1650.806058;1650.806058;1650.806058;1650.806058;0;1491
1.428;1650.806058;1650.806058;0;1650.806058;1650.806058;1650.806058;1650.806058;0;1492
1.43;1857.156815;1857.156815;0;1857.156815;1857.156815;1857.156815;1857.156815;0;1491
1.432;1650.806058;1650.806058;0;1650.806058;1650.806058;1650.806058;1650.806058;0;1476
1.434;1238.104543;1238.104543;0;1238.104543;1238.104543;1238.104543;1238.104543;0;1461
1.436;619.0522716;619.0522716;0;619.0522716;619.0522716;619.0522716;619.0522716;0;1463
1.438;619.0522716;619.0522716;0;619.0522716;619.0522716;619.0522716;619.0522716;0;1466
1.44;825.4030288;825.4030288;0;825.4030288;825.4030288;825.4030288;825.4030288;0;1468
1.442;825.4030288;825.4030288;0;825.4030288;825.4030288;825.4030288;825.4030288;0;1470
1.444;1031.753786;1031.753786;0;1031.753786;1031.753786;1031.753786;1031.753786;0;1473
1.446;1031.753786;1031.753786;0;1031.753786;1031.753786;1031.753786;1031.753786;0;1477
1.448;1238.104543;1238.104543;0;1238.104543;1238.104543;1238.104543;1238.104543;0;1479
1.45;1238.104543;1238.104543;0;1238.104543;1238.104543;1238.104543;1238.104543;0;1482
1.452;1444.4553;1444.4553;0;1444.4553;1444.4553;1444.4553;1444.4553;0;1472
1.454;1031.753786;1031.753786;0;1031.753786;1031.753786;1031.753786;1031.753786;0;1474
1.456;1031.753786;1031.753786;0;1031.753786;1031.753786;1031.753786;1031.753786;0;1476
1.458;1650.806058;1650.806058;0;1650.806058;1650.806058;1650.806058;1650.806058;0;1460
1.46;619.0522716;619.0522716;0;619.0522716;619.0522716;619.0522716;619.0522716;0;1446
1.462;0;0;0;0;0;0;0;0;1450
1.464;206.3507572;206.3507572;0;206.3507572;206.3507572;206.3507572;206.3507572;0;1456
1.466;412.7015144;412.7015144;0;412.7015144;412.7015144;412.7015144;412.7015144;0;1460
1.468;619.0522716;619.0522716;0;619.0522716;619.0522716;619.0522716;619.0522716;0;1464
1.47;825.4030288;825.4030288;0;825.4030288;825.4030288;825.4030288;825.4030288;0;1468
1.472;825.4030288;825.4030288;0;825.4030288;825.4030288;825.4030288;825.4030288;0;1472
1.474;1031.753786;1031.753786;0;1031.753786;1031.753786;1031.753786;1031.753786;0;1475
1.476;1238.104543;1238.104543;0;1238.104543;1238.104543;1238.104543;1238.104543;0;1478
1.478;1238.104543;1238.104543;0;1238.104543;1238.104543;1238.104543;1238.104543;0;1480
1.48;1238.104543;1238.104543;0;1238.104543;1238.104543;1238.104543;1238.104543;0;1482
1.482;1444.4553;1444.4553;0;1444.4553;1444.4553;1444.4553;1444.4553;0;1484
1.484;1650.806058;1650.806058;0;1650.806058;1650.806058;1650.806058;1650.806058;0;1468
1.486;825.4030288;825.4030288;0;825.4030288;825.4030288;825.4030288;825.4030288;0;1453
1.488;412.7015144;412.7015144;0;412.7015144;412.7015144;412.7015144;412.7015144;0;1459
1.49;619.0522716;619.0522716;0;619.0522716;619.0522716;619.0522716;619.0522716;0;1462
1.492;619.0522716;619.0522716;0;619.0522716;619.0522716;619.0522716;619.0522716;0;1467
1.494;825.4030288;825.4030288;0;825.4030288;825.4030288;825.4030288;825.4030288;0;1470
1.496;1031.753786;1031.753786;0;1031.753786;1031.753786;1031.753786;1031.753786;0;1473
1.498;1031.753786;1031.753786;0;1031.753786;1031.753786;1031.753786;1031.753786;0;1474
1.5;1031.753786;1031.753786;0;1031.753786;1031.753786;1031.753786;1031.753786;0;1475
1.502;1238.104543;1238.104543;0;1238.104543;1238.104543;1238.104543;1238.104543;0;1478
1.504;1238.104543;1238.104543;0;1238.104543;1238.104543;1238.104543;1238.104543;0;1479
1.506;1238.104543;1238.104543;0;1238.104543;1238.104543;1238.104543;1238.104543;0;1481
1.508;1444.4553;1444.4553;0;1444.4553;1444.4553;1444.4553;1444.4553;0;1484
1.51;1650.806058;1650.806058;0;1650.806058;1650.806058;1650.806058;1650.806058;0;1469
1.512;825.4030288;825.4030288;0;825.4030288;825.4030288;825.4030288;825.4030288;0;1454
1.514;412.7015144;412.7015144;0;412.7015144;412.7015144;412.7015144;412.7015144;0;1458
1.516;412.7015144;412.7015144;0;412.7015144;412.7015144;412.7015144;412.7015144;0;1463
1.518;619.0522716;619.0522716;0;619.0522716;619.0522716;619.0522716;619.0522716;0;1467
1.52;825.4030288;825.4030288;0;825.4030288;825.4030288;825.4030288;825.4030288;0;1472
1.522;1031.753786;1031.753786;0;1031.753786;1031.753786;1031.753786;1031.753786;0;1474
1.524;1031.753786;1031.753786;0;1031.753786;1031.753786;1031.753786;1031.753786;0;1476
1.526;1238.104543;1238.104543;0;1238.104543;1238.104543;1238.104543;1238.104543;0;1478
1.528;1238.104543;1238.104543;0;1238.104543;1238.104543;1238.104543;1238.104543;0;1482
1.53;1444.4553;1444.4553;0;1444.4553;1444.4553;1444.4553;1444.4553;0;1483
1.532;1444.4553;1444.4553;0;1444.4553;1444.4553;1444.4553;1444.4553;0;1484
1.534;1444.4553;1444.4553;0;1444.4553;1444.4553;1444.4553;1444.4553;0;1486
1.536;1650.806058;1650.806058;0;1650.806058;1650.806058;1650.806058;1650.806058;0;1467
1.538;825.4030288;825.4030288;0;825.4030288;825.4030288;825.4030288;825.4030288;0;1453
1.54;412.7015144;412.7015144;0;412.7015144;412.7015144;412.7015144;412.7015144;0;1455
1.542;412.7015144;412.7015144;0;412.7015144;412.7015144;412.7015144;412.7015144;0;1458
1.544;412.7015144;412.7015144;0;412.7015144;412.7015144;412.7015144;412.7015144;0;1462
1.546;619.0522716;619.0522716;0;619.0522716;619.0522716;619.0522716;619.0522716;0;1466
1.548;825.4030288;825.4030288;0;825.4030288;825.4030288;825.4030288;825.4030288;0;1469
1.55;825.4030288;825.4030288;0;825.4030288;825.4030288;825.4030288;825.4030288;0;1472
1.552;1031.753786;1031.753786;0;1031.753786;1031.753786;1031.753786;1031.753786;0;1475
1.554;1238.104543;1238.104543;0;1238.104543;1238.104543;1238.104543;1238.104543;0;1477
1.556;1238.104543;1238.104543;0;1238.104543;1238.104543;1238.104543;1238.104543;0;1480
1.558;1238.104543;1238.104543;0;1238.104543;1238.104543;1238.104543;1238.104543;0;1482
1.56;1444.4553;1444.4553;0;1444.4553;1444.4553;1444.4553;1444.4553;0;1483
1.562;1650.806058;1650.806058;0;1650.806058;1650.806058;1650.806058;1650.806058;0;1466
1.564;825.4030288;825.4030288;0;825.4030288;825.4030288;825.4030288;825.4030288;0;1451
1.566;206.3507572;206.3507572;0;206.3507572;206.3507572;206.3507572;206.3507572;0;1455
1.568;412.7015144;412.7015144;0;412.7015144;412.7015144;412.7015144;412.7015144;0;1459
1.57;619.0522716;619.0522716;0;619.0522716;619.0522716;619.0522716;619.0522716;0;1464
1.572;825.4030288;825.4030288;0;825.4030288;825.4030288;825.4030288;825.4030288;0;1467
1.574;825.4030288;825.4030288;0;825.4030288;825.4030288;825.4030288;825.4030288;0;1470
1.576;1031.753786;1031.753786;0;1031.753786;1031.753786;1031.753786;1031.753786;0;1472
1.578;1031.753786;1031.753786;0;1031.753786;1031.753786;1031.753786;1031.753786;0;1475
1.58;1238.104543;1238.104543;0;1238.104543;1238.104543;1238.104543;1238.104543;0;1478
1.582;1238.104543;1238.104543;0;1238.104543;1238.104543;1238.104543;1238.104543;0;1480
1.584;1238.104543;1238.104543;0;1238.104543;1238.104543;1238.104543;1238.104543;0;1482
1.586;1444.4553;1444.4553;0;1444.4553;1444.4553;1444.4553;1444.4553;0;1484
1.588;1650.806058;1650.806058;0;1650.806058;1650.806058;1650.806058;1650.806058;0;1468
1.59;825.4030288;825.4030288;0;825.4030288;825.4030288;825.4030288;825.4030288;0;1453
1.592;412.7015144;412.7015144;0;412.7015144;412.7015144;412.7015144;412.7015144;0;1458
1.594;412.7015144;412.7015144;0;412.7015144;412.7015144;412.7015144;412.7015144;0;1460
1.596;619.0522716;619.0522716;0;619.0522716;619.0522716;619.0522716;619.0522716;0;1465
1.598;825.4030288;825.4030288;0;825.4030288;825.4030288;825.4030288;825.4030288;0;1469
1.6;825.4030288;825.4030288;0;825.4030288;825.4030288;825.4030288;825.4030288;0;1472
1.602;1031.753786;1031.753786;0;1031.753786;1031.753786;1031.753786;1031.753786;0;1474
1.604;1031.753786;1031.753786;0;1031.753786;1031.753786;1031.753786;1031.753786;0;1475
1.606;1238.104543;1238.104543;0;1238.104543;1238.104543;1238.104543;1238.104543;0;1477
1.608;1238.104543;1238.104543;0;1238.104543;1238.104543;1238.104543;1238.104543;0;1479
1.61;1238.104543;1238.104543;0;1238.104543;1238.104543;1238.104543;1238.104543;0;1482
1.612;1444.4553;1444.4553;0;1444.4553;1444.4553;1444.4553;1444.4553;0;1485
1.614;1650.806058;1650.806058;0;1650.806058;1650.806058;1650.806058;1650.806058;0;1470
1.616;1031.753786;1031.753786;0;1031.753786;1031.753786;1031.753786;1031.753786;0;1455
1.618;412.7015144;412.7015144;0;412.7015144;412.7015144;412.7015144;412.7015144;0;1460
1.62;619.0522716;619.0522716;0;619.0522716;619.0522716;619.0522716;619.0522716;0;1462
1.622;619.0522716;619.0522716;0;619.0522716;619.0522716;619.0522716;619.0522716;0;1466
1.624;825.4030288;825.4030288;0;825.4030288;825.4030288;825.4030288;825.4030288;0;1469
1.626;825.4030288;825.4030288;0;825.4030288;825.4030288;825.4030288;825.4030288;0;1472
1.628;1031.753786;1031.753786;0;1031.753786;1031.753786;1031.753786;1031.753786;0;1475
1.63;1238.104543;1238.104543;0;1238.104543;1238.104543;1238.104543;1238.104543;0;1477
1.632;1238.104543;1238.104543;0;1238.104543;1238.104543;1238.104543;1238.104543;0;1480
1.634;1238.104543;1238.104543;0;1238.104543;1238.104543;1238.104543;1238.104543;0;1482
1.636;1444.4553;1444.4553;0;1444.4553;1444.4553;1444.4553;1444.4553;0;1482
1.638;1444.4553;1444.4553;0;1444.4553;1444.4553;1444.4553;1444.4553;0;1484
1.64;1650.806058;1650.806058;0;1650.806058;1650.806058;1650.806058;1650.806058;0;1468
1.642;825.4030288;825.4030288;0;825.4030288;825.4030288;825.4030288;825.4030288;0;1452
1.644;206.3507572;206.3507572;0;206.3507572;206.3507572;206.3507572;206.3507572;0;1457
1.646;412.7015144;412.7015144;0;412.7015144;412.7015144;412.7015144;412.7015144;0;1461
1.648;619.0522716;619.0522716;0;619.0522716;619.0522716;619.0522716;619.0522716;0;1464
1.65;825.4030288;825.4030288;0;825.4030288;825.4030288;825.4030288;825.4030288;0;1467
1.652;825.4030288;825.4030288;0;825.4030288;825.4030288;825.4030288;825.4030288;0;1471
1.654;1031.753786;1031.753786;0;1031.753786;1031.753786;1031.753786;1031.753786;0;1473
1.656;1031.753786;1031.753786;0;1031.753786;1031.753786;1031.753786;1031.753786;0;1475
1.658;1238.104543;1238.104543;0;1238.104543;1238.104543;1238.104543;1238.104543;0;1477
1.66;1238.104543;1238.104543;0;1238.104543;1238.104543;1238.104543;1238.104543;0;1479
1.662;1238.104543;1238.104543;0;1238.104543;1238.104543;1238.104543;1238.104543;0;1481
1.664;1444.4553;1444.4553;0;1444.4553;1444.4553;1444.4553;1444.4553;0;1480
1.666;1650.806058;1650.806058;0;1650.806058;1650.806058;1650.806058;1650.806058;0;1467
1.668;825.4030288;825.4030288;0;825.4030288;825.4030288;825.4030288;825.4030288;0;1452
1.67;206.3507572;206.3507572;0;206.3507572;206.3507572;206.3507572;206.3507572;0;1456
1.672;412.7015144;412.7015144;0;412.7015144;412.7015144;412.7015144;412.7015144;0;1461
1.674;619.0522716;619.0522716;0;619.0522716;619.0522716;619.0522716;619.0522716;0;1466
1.676;825.4030288;825.4030288;0;825.4030288;825.4030288;825.4030288;825.4030288;0;1469
1.678;825.4030288;825.4030288;0;825.4030288;825.4030288;825.4030288;825.4030288;0;1472
1.68;1031.753786;1031.753786;0;1031.753786;1031.753786;1031.753786;1031.753786;0;1474
1.682;1031.753786;1031.753786;0;1031.753786;1031.753786;1031.753786;1031.753786;0;1477
1.684;1238.104543;1238.104543;0;1238.104543;1238.104543;1238.104543;1238.104543;0;1479
1.686;1238.104543;1238.104543;0;1238.104543;1238.104543;1238.104543;1238.104543;0;1481
1.688;1444.4553;1444.4553;0;1444.4553;1444.4553;1444.4553;1444.4553;0;1483
1.69;1444.4553;1444.4553;0;1444.4553;1444.4553;1444.4553;1444.4553;0;1485
1.692;1650.806058;1650.806058;0;1650.806058;1650.806058;1650.806058;1650.806058;0;1486
1.694;1444.4553;1444.4553;0;1444.4553;1444.4553;1444.4553;1444.4553;0;1468
1.696;825.4030288;825.4030288;0;825.4030288;825.4030288;825.4030288;825.4030288;0;1453
1.698;412.7015144;412.7015144;0;412.7015144;412.7015144;412.7015144;412.7015144;0;1458
1.7;412.7015144;412.7015144;0;412.7015144;412.7015144;412.7015144;412.7015144;0;1463
1.702;619.0522716;619.0522716;0;619.0522716;619.0522716;619.0522716;619.0522716;0;1467
1.704;825.4030288;825.4030288;0;825.4030288;825.4030288;825.4030288;825.4030288;0;1472
1.706;1031.753786;1031.753786;0;1031.753786;1031.753786;1031.753786;1031.753786;0;1476
1.708;1238.104543;1238.104543;0;1238.104543;1238.104543;1238.104543;1238.104543;0;1478
1.71;1238.104543;1238.104543;0;1238.104543;1238.104543;1238.104543;1238.104543;0;1480
1.712;1238.104543;1238.104543;0;1238.104543;1238.104543;1238.104543;1238.104543;0;1483
1.714;1444.4553;1444.4553;0;1444.4553;1444.4553;1444.4553;1444.4553;0;1485
1.716;1444.4553;1444.4553;0;1444.4553;1444.4553;1444.4553;1444.4553;0;1483
1.718;1650.806058;1650.806058;0;1650.806058;1650.806058;1650.806058;1650.806058;0;1486
1.72;1444.4553;1444.4553;0;1444.4553;1444.4553;1444.4553;1444.4553;0;1469
1.722;825.4030288;825.4030288;0;825.4030288;825.4030288;825.4030288;825.4030288;0;1471
1.724;1031.753786;1031.753786;0;1031.753786;1031.753786;1031.753786;1031.753786;0;1474
1.726;1031.753786;1031.753786;0;1031.753786;1031.753786;1031.753786;1031.753786;0;1475
1.728;1238.104543;1238.104543;0;1238.104543;1238.104543;1238.104543;1238.104543;0;1478
1.73;1238.104543;1238.104543;0;1238.104543;1238.104543;1238.104543;1238.104543;0;1478
1.732;1238.104543;1238.104543;0;1238.104543;1238.104543;1238.104543;1238.104543;0;1480
1.734;1238.104543;1238.104543;0;1238.104543;1238.104543;1238.104543;1238.104543;0;1482
1.736;1444.4553;1444.4553;0;1444.4553;1444.4553;1444.4553;1444.4553;0;1484
1.738;1444.4553;1444.4553;0;1444.4553;1444.4553;1444.4553;1444.4553;0;1485
1.74;1444.4553;1444.4553;0;1444.4553;1444.4553;1444.4553;1444.4553;0;1488
1.742;1650.806058;1650.806058;0;1650.806058;1650.806058;1650.806058;1650.806058;0;1489
1.744;1650.806058;1650.806058;0;1650.806058;1650.806058;1650.806058;1650.806058;0;1472
1.746;1031.753786;1031.753786;0;1031.753786;1031.753786;1031.753786;1031.753786;0;1456
1.748;412.7015144;412.7015144;0;412.7015144;412.7015144;412.7015144;412.7015144;0;1461
1.75;619.0522716;619.0522716;0;619.0522716;619.0522716;619.0522716;619.0522716;0;1465
1.752;825.4030288;825.4030288;0;825.4030288;825.4030288;825.4030288;825.4030288;0;1468
1.754;825.4030288;825.4030288;0;825.4030288;825.4030288;825.4030288;825.4030288;0;1468
1.756;825.4030288;825.4030288;0;825.4030288;825.4030288;825.4030288;825.4030288;0;1472
1.758;1031.753786;1031.753786;0;1031.753786;1031.753786;1031.753786;1031.753786;0;1474
1.76;1031.753786;1031.753786;0;1031.753786;1031.753786;1031.753786;1031.753786;0;1478
1.762;1238.104543;1238.104543;0;1238.104543;1238.104543;1238.104543;1238.104543;0;1480
1.764;1238.104543;1238.104543;0;1238.104543;1238.104543;1238.104543;1238.104543;0;1482
1.766;1444.4553;1444.4553;0;1444.4553;1444.4553;1444.4553;1444.4553;0;1484
1.768;1444.4553;1444.4553;0;1444.4553;1444.4553;1444.4553;1444.4553;0;1485
1.77;1650.806058;1650.806058;0;1650.806058;1650.806058;1650.806058;1650.806058;0;1487
1.772;1650.806058;1650.806058;0;1650.806058;1650.806058;1650.806058;1650.806058;0;1469
1.774;825.4030288;825.4030288;0;825.4030288;825.4030288;825.4030288;825.4030288;0;1454
1.776;412.7015144;412.7015144;0;412.7015144;412.7015144;412.7015144;412.7015144;0;1458
1.778;412.7015144;412.7015144;0;412.7015144;412.7015144;412.7015144;412.7015144;0;1462
1.78;619.0522716;619.0522716;0;619.0522716;619.0522716;619.0522716;619.0522716;0;1465
1.782;825.4030288;825.4030288;0;825.4030288;825.4030288;825.4030288;825.4030288;0;1468
1.784;825.4030288;825.4030288;0;825.4030288;825.4030288;825.4030288;825.4030288;0;1471
1.786;1031.753786;1031.753786;0;1031.753786;1031.753786;1031.753786;1031.753786;0;1473
1.788;1031.753786;1031.753786;0;1031.753786;1031.753786;1031.753786;1031.753786;0;1473
1.79;1031.753786;1031.753786;0;1031.753786;1031.753786;1031.753786;1031.753786;0;1475
1.792;1238.104543;1238.104543;0;1238.104543;1238.104543;1238.104543;1238.104543;0;1477
1.794;1238.104543;1238.104543;0;1238.104543;1238.104543;1238.104543;1238.104543;0;1480
1.796;1650.806058;1650.806058;0;1650.806058;1650.806058;1650.806058;1650.806058;0;1465
1.798;825.4030288;825.4030288;0;825.4030288;825.4030288;825.4030288;825.4030288;0;1449
1.8;206.3507572;206.3507572;0;206.3507572;206.3507572;206.3507572;206.3507572;0;1455
1.802;412.7015144;412.7015144;0;412.7015144;412.7015144;412.7015144;412.7015144;0;1460
1.804;619.0522716;619.0522716;0;619.0522716;619.0522716;619.0522716;619.0522716;0;1466
1.806;825.4030288;825.4030288;0;825.4030288;825.4030288;825.4030288;825.4030288;0;1469
1.808;825.4030288;825.4030288;0;825.4030288;825.4030288;825.4030288;825.4030288;0;1472
1.81;1031.753786;1031.753786;0;1031.753786;1031.753786;1031.753786;1031.753786;0;1475
1.812;1238.104543;1238.104543;0;1238.104543;1238.104543;1238.104543;1238.104543;0;1477
1.814;1238.104543;1238.104543;0;1238.104543;1238.104543;1238.104543;1238.104543;0;1478
1.816;1238.104543;1238.104543;0;1238.104543;1238.104543;1238.104543;1238.104543;0;1479
1.818;1238.104543;1238.104543;0;1238.104543;1238.104543;1238.104543;1238.104543;0;1480
1.82;1238.104543;1238.104543;0;1238.104543;1238.104543;1238.104543;1238.104543;0;1480
1.822;1650.806058;1650.806058;0;1650.806058;1650.806058;1650.806058;1650.806058;0;1464
1.824;825.4030288;825.4030288;0;825.4030288;825.4030288;825.4030288;825.4030288;0;1449
1.826;206.3507572;206.3507572;0;206.3507572;206.3507572;206.3507572;206.3507572;0;1452
1.828;206.3507572;206.3507572;0;206.3507572;206.3507572;206.3507572;206.3507572;0;1457
1.83;412.7015144;412.7015144;0;412.7015144;412.7015144;412.7015144;412.7015144;0;1461
1.832;619.0522716;619.0522716;0;619.0522716;619.0522716;619.0522716;619.0522716;0;1465
1.834;825.4030288;825.4030288;0;825.4030288;825.4030288;825.4030288;825.4030288;0;1468
1.836;825.4030288;825.4030288;0;825.4030288;825.4030288;825.4030288;825.4030288;0;1472
1.838;1031.753786;1031.753786;0;1031.753786;1031.753786;1031.753786;1031.753786;0;1474
1.84;1031.753786;1031.753786;0;1031.753786;1031.753786;1031.753786;1031.753786;0;1478
1.842;1238.104543;1238.104543;0;1238.104543;1238.104543;1238.104543;1238.104543;0;1478
1.844;1238.104543;1238.104543;0;1238.104543;1238.104543;1238.104543;1238.104543;0;1479
1.846;1238.104543;1238.104543;0;1238.104543;1238.104543;1238.104543;1238.104543;0;1481
1.848;1650.806058;1650.806058;0;1650.806058;1650.806058;1650.806058;1650.806058;0;1466
1.85;825.4030288;825.4030288;0;825.4030288;825.4030288;825.4030288;825.4030288;0;1451
1.852;206.3507572;206.3507572;0;206.3507572;206.3507572;206.3507572;206.3507572;0;1455
1.854;412.7015144;412.7015144;0;412.7015144;412.7015144;412.7015144;412.7015144;0;1460
1.856;619.0522716;619.0522716;0;619.0522716;619.0522716;619.0522716;619.0522716;0;1464
1.858;825.4030288;825.4030288;0;825.4030288;825.4030288;825.4030288;825.4030288;0;1469
1.86;825.4030288;825.4030288;0;825.4030288;825.4030288;825.4030288;825.4030288;0;1472
1.862;1031.753786;1031.753786;0;1031.753786;1031.753786;1031.753786;1031.753786;0;1474
1.864;1031.753786;1031.753786;0;1031.753786;1031.753786;1031.753786;1031.753786;0;1477
1.866;1238.104543;1238.104543;0;1238.104543;1238.104543;1238.104543;1238.104543;0;1478
1.868;1238.104543;1238.104543;0;1238.104543;1238.104543;1238.104543;1238.104543;0;1481
1.87;1444.4553;1444.4553;0;1444.4553;1444.4553;1444.4553;1444.4553;0;1482
1.872;1444.4553;1444.4553;0;1444.4553;1444.4553;1444.4553;1444.4553;0;1483
1.874;1650.806058;1650.806058;0;1650.806058;1650.806058;1650.806058;1650.806058;0;1467
1.876;825.4030288;825.4030288;0;825.4030288;825.4030288;825.4030288;825.4030288;0;1451
1.878;206.3507572;206.3507572;0;206.3507572;206.3507572;206.3507572;206.3507572;0;1456
1.88;412.7015144;412.7015144;0;412.7015144;412.7015144;412.7015144;412.7015144;0;1461
1.882;619.0522716;619.0522716;0;619.0522716;619.0522716;619.0522716;619.0522716;0;1465
1.884;825.4030288;825.4030288;0;825.4030288;825.4030288;825.4030288;825.4030288;0;1468
1.886;825.4030288;825.4030288;0;825.4030288;825.4030288;825.4030288;825.4030288;0;1470
1.888;1031.753786;1031.753786;0;1031.753786;1031.753786;1031.753786;1031.753786;0;1472
1.89;1031.753786;1031.753786;0;1031.753786;1031.753786;1031.753786;1031.753786;0;1475
1.892;1238.104543;1238.104543;0;1238.104543;1238.104543;1238.104543;1238.104543;0;1477
1.894;1238.104543;1238.104543;0;1238.104543;1238.104543;1238.104543;1238.104543;0;1480
1.896;1238.104543;1238.104543;0;1238.104543;1238.104543;1238.104543;1238.104543;0;1482
1.898;1444.4553;1444.4553;0;1444.4553;1444.4553;1444.4553;1444.4553;0;1482
1.9;1650.806058;1650.806058;0;1650.806058;1650.806058;1650.806058;1650.806058;0;1464
1.902;825.4030288;825.4030288;0;825.4030288;825.4030288;825.4030288;825.4030288;0;1448
1.904;206.3507572;206.3507572;0;206.3507572;206.3507572;206.3507572;206.3507572;0;1451
1.906;206.3507572;206.3507572;0;206.3507572;206.3507572;206.3507572;206.3507572;0;1456
1.908;412.7015144;412.7015144;0;412.7015144;412.7015144;412.7015144;412.7015144;0;1461
1.91;619.0522716;619.0522716;0;619.0522716;619.0522716;619.0522716;619.0522716;0;1466
1.912;825.4030288;825.4030288;0;825.4030288;825.4030288;825.4030288;825.4030288;0;1468
1.914;825.4030288;825.4030288;0;825.4030288;825.4030288;825.4030288;825.4030288;0;1467
1.916;825.4030288;825.4030288;0;825.4030288;825.4030288;825.4030288;825.4030288;0;1470
1.918;1031.753786;1031.753786;0;1031.753786;1031.753786;1031.753786;1031.753786;0;1468
1.92;825.4030288;825.4030288;0;825.4030288;825.4030288;825.4030288;825.4030288;0;1471
1.922;1031.753786;1031.753786;0;1031.753786;1031.753786;1031.753786;1031.753786;0;1475
1.924;1238.104543;1238.104543;0;1238.104543;1238.104543;1238.104543;1238.104543;0;1478
1.926;1650.806058;1650.806058;0;1650.806058;1650.806058;1650.806058;1650.806058;0;1463
1.928;619.0522716;619.0522716;0;619.0522716;619.0522716;619.0522716;619.0522716;0;1448
1.93;206.3507572;206.3507572;0;206.3507572;206.3507572;206.3507572;206.3507572;0;1453
1.932;412.7015144;412.7015144;0;412.7015144;412.7015144;412.7015144;412.7015144;0;1459
1.934;619.0522716;619.0522716;0;619.0522716;619.0522716;619.0522716;619.0522716;0;1462
1.936;619.0522716;619.0522716;0;619.0522716;619.0522716;619.0522716;619.0522716;0;1466
1.938;825.4030288;825.4030288;0;825.4030288;825.4030288;825.4030288;825.4030288;0;1470
1.94;1031.753786;1031.753786;0;1031.753786;1031.753786;1031.753786;1031.753786;0;1473
1.942;1031.753786;1031.753786;0;1031.753786;1031.753786;1031.753786;1031.753786;0;1475
1.944;1238.104543;1238.104543;0;1238.104543;1238.104543;1238.104543;1238.104543;0;1478
1.946;1238.104543;1238.104543;0;1238.104543;1238.104543;1238.104543;1238.104543;0;1480
1.948;1238.104543;1238.104543;0;1238.104543;1238.104543;1238.104543;1238.104543;0;1480
1.95;1238.104543;1238.104543;0;1238.104543;1238.104543;1238.104543;1238.104543;0;1482
1.952;1650.806058;1650.806058;0;1650.806058;1650.806058;1650.806058;1650.806058;0;1467
1.954;825.4030288;825.4030288;0;825.4030288;825.4030288;825.4030288;825.4030288;0;1451
1.956;206.3507572;206.3507572;0;206.3507572;206.3507572;206.3507572;206.3507572;0;1457
1.958;412.7015144;412.7015144;0;412.7015144;412.7015144;412.7015144;412.7015144;0;1461
1.96;619.0522716;619.0522716;0;619.0522716;619.0522716;619.0522716;619.0522716;0;1464
1.962;825.4030288;825.4030288;0;825.4030288;825.4030288;825.4030288;825.4030288;0;1468
1.964;825.4030288;825.4030288;0;825.4030288;825.4030288;825.4030288;825.4030288;0;1471
1.966;1031.753786;1031.753786;0;1031.753786;1031.753786;1031.753786;1031.753786;0;1469
1.968;825.4030288;825.4030288;0;825.4030288;825.4030288;825.4030288;825.4030288;0;1472
1.97;1031.753786;1031.753786;0;1031.753786;1031.753786;1031.753786;1031.753786;0;1474
1.972;1031.753786;1031.753786;0;1031.753786;1031.753786;1031.753786;1031.753786;0;1476
1.974;1238.104543;1238.104543;0;1238.104543;1238.104543;1238.104543;1238.104543;0;1478
1.976;1238.104543;1238.104543;0;1238.104543;1238.104543;1238.104543;1238.104543;0;1480
1.978;1650.806058;1650.806058;0;1650.806058;1650.806058;1650.806058;1650.806058;0;1482
1.98;1444.4553;1444.4553;0;1444.4553;1444.4553;1444.4553;1444.4553;0;1464
1.982;825.4030288;825.4030288;0;825.4030288;825.4030288;825.4030288;825.4030288;0;1467
1.984;825.4030288;825.4030288;0;825.4030288;825.4030288;825.4030288;825.4030288;0;1470
1.986;1031.753786;1031.753786;0;1031.753786;1031.753786;1031.753786;1031.753786;0;1472
1.988;1031.753786;1031.753786;0;1031.753786;1031.753786;1031.753786;1031.753786;0;1473
1.99;1031.753786;1031.753786;0;1031.753786;1031.753786;1031.753786;1031.753786;0;1476
1.992;1238.104543;1238.104543;0;1238.104543;1238.104543;1238.104543;1238.104543;0;1478
1.994;1238.104543;1238.104543;0;1238.104543;1238.104543;1238.104543;1238.104543;0;1479
1.996;1238.104543;1238.104543;0;1238.104543;1238.104543;1238.104543;1238.104543;0;1481
1.998;1444.4553;1444.4553;0;1444.4553;1444.4553;1444.4553;1444.4553;0;1482
2;1444.4553;1444.4553;0;1444.4553;1444.4553;1444.4553;1444.4553;0;1484
2.002;1444.4553;1444.4553;0;1444.4553;1444.4553;1444.4553;1444.4553;0;1483
2.004;1650.806058;1650.806058;0;1650.806058;1650.806058;1650.806058;1650.806058;0;1467
2.006;825.4030288;825.4030288;0;825.4030288;825.4030288;825.4030288;825.4030288;0;1452
2.008;206.3507572;206.3507572;0;206.3507572;206.3507572;206.3507572;206.3507572;0;1456
2.01;412.7015144;412.7015144;0;412.7015144;412.7015144;412.7015144;412.7015144;0;1460
2.012;619.0522716;619.0522716;0;619.0522716;619.0522716;619.0522716;619.0522716;0;1463
2.014;619.0522716;619.0522716;0;619.0522716;619.0522716;619.0522716;619.0522716;0;1464
2.016;825.4030288;825.4030288;0;825.4030288;825.4030288;825.4030288;825.4030288;0;1467
2.018;825.4030288;825.4030288;0;825.4030288;825.4030288;825.4030288;825.4030288;0;1469
2.02;825.4030288;825.4030288;0;825.4030288;825.4030288;825.4030288;825.4030288;0;1471
2.022;1031.753786;1031.753786;0;1031.753786;1031.753786;1031.753786;1031.753786;0;1474
2.024;1031.753786;1031.753786;0;1031.753786;1031.753786;1031.753786;1031.753786;0;1477
2.026;1238.104543;1238.104543;0;1238.104543;1238.104543;1238.104543;1238.104543;0;1478
2.028;1238.104543;1238.104543;0;1238.104543;1238.104543;1238.104543;1238.104543;0;1477
2.03;1650.806058;1650.806058;0;1650.806058;1650.806058;1650.806058;1650.806058;0;1462
2.032;619.0522716;619.0522716;0;619.0522716;619.0522716;619.0522716;619.0522716;0;1446
2.034;0;0;0;0;0;0;0;0;1450
2.036;206.3507572;206.3507572;0;206.3507572;206.3507572;206.3507572;206.3507572;0;1455
2.038;412.7015144;412.7015144;0;412.7015144;412.7015144;412.7015144;412.7015144;0;1460
2.04;619.0522716;619.0522716;0;619.0522716;619.0522716;619.0522716;619.0522716;0;1464
2.042;825.4030288;825.4030288;0;825.4030288;825.4030288;825.4030288;825.4030288;0;1466
2.044;825.4030288;825.4030288;0;825.4030288;825.4030288;825.4030288;825.4030288;0;1470
2.046;1031.753786;1031.753786;0;1031.753786;1031.753786;1031.753786;1031.753786;0;1472
2.048;1031.753786;1031.753786;0;1031.753786;1031.753786;1031.753786;1031.753786;0;1476
2.05;1238.104543;1238.104543;0;1238.104543;1238.104543;1238.104543;1238.104543;0;1479
2.052;1238.104543;1238.104543;0;1238.104543;1238.104543;1238.104543;1238.104543;0;1481
2.054;1444.4553;1444.4553;0;1444.4553;1444.4553;1444.4553;1444.4553;0;1482
2.056;1650.806058;1650.806058;0;1650.806058;1650.806058;1650.806058;1650.806058;0;1466
2.058;825.4030288;825.4030288;0;825.4030288;825.4030288;825.4030288;825.4030288;0;1450
2.06;206.3507572;206.3507572;0;206.3507572;206.3507572;206.3507572;206.3507572;0;1456
2.062;412.7015144;412.7015144;0;412.7015144;412.7015144;412.7015144;412.7015144;0;1460
2.064;619.0522716;619.0522716;0;619.0522716;619.0522716;619.0522716;619.0522716;0;1464
2.066;825.4030288;825.4030288;0;825.4030288;825.4030288;825.4030288;825.4030288;0;1466
2.068;825.4030288;825.4030288;0;825.4030288;825.4030288;825.4030288;825.4030288;0;1470
2.07;1031.753786;1031.753786;0;1031.753786;1031.753786;1031.753786;1031.753786;0;1473
2.072;1031.753786;1031.753786;0;1031.753786;1031.753786;1031.753786;1031.753786;0;1475
2.074;1238.104543;1238.104543;0;1238.104543;1238.104543;1238.104543;1238.104543;0;1479
2.076;1238.104543;1238.104543;0;1238.104543;1238.104543;1238.104543;1238.104543;0;1481
2.078;1444.4553;1444.4553;0;1444.4553;1444.4553;1444.4553;1444.4553;0;1480
2.08;1238.104543;1238.104543;0;1238.104543;1238.104543;1238.104543;1238.104543;0;1482
2.082;1650.806058;1650.806058;0;1650.806058;1650.806058;1650.806058;1650.806058;0;1465
2.084;825.4030288;825.4030288;0;825.4030288;825.4030288;825.4030288;825.4030288;0;1450
2.086;206.3507572;206.3507572;0;206.3507572;206.3507572;206.3507572;206.3507572;0;1455
2.088;412.7015144;412.7015144;0;412.7015144;412.7015144;412.7015144;412.7015144;0;1459
2.09;619.0522716;619.0522716;0;619.0522716;619.0522716;619.0522716;619.0522716;0;1463
2.092;619.0522716;619.0522716;0;619.0522716;619.0522716;619.0522716;619.0522716;0;1466
2.094;825.4030288;825.4030288;0;825.4030288;825.4030288;825.4030288;825.4030288;0;1469
2.096;825.4030288;825.4030288;0;825.4030288;825.4030288;825.4030288;825.4030288;0;1472
2.098;1031.753786;1031.753786;0;1031.753786;1031.753786;1031.753786;1031.753786;0;1474
2.1;1031.753786;1031.753786;0;1031.753786;1031.753786;1031.753786;1031.753786;0;1476
2.102;1238.104543;1238.104543;0;1238.104543;1238.104543;1238.104543;1238.104543;0;1478
2.104;1238.104543;1238.104543;0;1238.104543;1238.104543;1238.104543;1238.104543;0;1479
2.106;1238.104543;1238.104543;0;1238.104543;1238.104543;1238.104543;1238.104543;0;1480
2.108;1650.806058;1650.806058;0;1650.806058;1650.806058;1650.806058;1650.806058;0;1464
2.11;825.4030288;825.4030288;0;825.4030288;825.4030288;825.4030288;825.4030288;0;1449
2.112;206.3507572;206.3507572;0;206.3507572;206.3507572;206.3507572;206.3507572;0;1454
2.114;412.7015144;412.7015144;0;412.7015144;412.7015144;412.7015144;412.7015144;0;1459
2.116;619.0522716;619.0522716;0;619.0522716;619.0522716;619.0522716;619.0522716;0;1461
2.118;619.0522716;619.0522716;0;619.0522716;619.0522716;619.0522716;619.0522716;0;1464
2.12;825.4030288;825.4030288;0;825.4030288;825.4030288;825.4030288;825.4030288;0;1467
2.122;825.4030288;825.4030288;0;825.4030288;825.4030288;825.4030288;825.4030288;0;1470
2.124;1031.753786;1031.753786;0;1031.753786;1031.753786;1031.753786;1031.753786;0;1473
2.126;1031.753786;1031.753786;0;1031.753786;1031.753786;1031.753786;1031.753786;0;1476
2.128;1238.104543;1238.104543;0;1238.104543;1238.104543;1238.104543;1238.104543;0;1478
2.13;1238.104543;1238.104543;0;1238.104543;1238.104543;1238.104543;1238.104543;0;1481
2.132;1444.4553;1444.4553;0;1444.4553;1444.4553;1444.4553;1444.4553;0;1483
2.134;1650.806058;1650.806058;0;1650.806058;1650.806058;1650.806058;1650.806058;0;1466
2.136;825.4030288;825.4030288;0;825.4030288;825.4030288;825.4030288;825.4030288;0;1451
2.138;206.3507572;206.3507572;0;206.3507572;206.3507572;206.3507572;206.3507572;0;1456
2.14;412.7015144;412.7015144;0;412.7015144;412.7015144;412.7015144;412.7015144;0;1462
2.142;619.0522716;619.0522716;0;619.0522716;619.0522716;619.0522716;619.0522716;0;1466
2.144;825.4030288;825.4030288;0;825.4030288;825.4030288;825.4030288;825.4030288;0;1469
2.146;825.4030288;825.4030288;0;825.4030288;825.4030288;825.4030288;825.4030288;0;1471
2.148;1031.753786;1031.753786;0;1031.753786;1031.753786;1031.753786;1031.753786;0;1474
2.15;1031.753786;1031.753786;0;1031.753786;1031.753786;1031.753786;1031.753786;0;1476
2.152;1238.104543;1238.104543;0;1238.104543;1238.104543;1238.104543;1238.104543;0;1479
2.154;1238.104543;1238.104543;0;1238.104543;1238.104543;1238.104543;1238.104543;0;1481
2.156;1444.4553;1444.4553;0;1444.4553;1444.4553;1444.4553;1444.4553;0;1483
2.158;1444.4553;1444.4553;0;1444.4553;1444.4553;1444.4553;1444.4553;0;1485
2.16;1650.806058;1650.806058;0;1650.806058;1650.806058;1650.806058;1650.806058;0;1469
2.162;825.4030288;825.4030288;0;825.4030288;825.4030288;825.4030288;825.4030288;0;1452
2.164;206.3507572;206.3507572;0;206.3507572;206.3507572;206.3507572;206.3507572;0;1457
2.166;412.7015144;412.7015144;0;412.7015144;412.7015144;412.7015144;412.7015144;0;1461
2.168;619.0522716;619.0522716;0;619.0522716;619.0522716;619.0522716;619.0522716;0;1466
2.17;825.4030288;825.4030288;0;825.4030288;825.4030288;825.4030288;825.4030288;0;1467
2.172;825.4030288;825.4030288;0;825.4030288;825.4030288;825.4030288;825.4030288;0;1470
2.174;1031.753786;1031.753786;0;1031.753786;1031.753786;1031.753786;1031.753786;0;1474
2.176;1031.753786;1031.753786;0;1031.753786;1031.753786;1031.753786;1031.753786;0;1475
2.178;1238.104543;1238.104543;0;1238.104543;1238.104543;1238.104543;1238.104543;0;1476
2.18;1238.104543;1238.104543;0;1238.104543;1238.104543;1238.104543;1238.104543;0;1477
2.182;1238.104543;1238.104543;0;1238.104543;1238.104543;1238.104543;1238.104543;0;1480
2.184;1238.104543;1238.104543;0;1238.104543;1238.104543;1238.104543;1238.104543;0;1478
2.186;1650.806058;1650.806058;0;1650.806058;1650.806058;1650.806058;1650.806058;0;1461
2.188;619.0522716;619.0522716;0;619.0522716;619.0522716;619.0522716;619.0522716;0;1446
2.19;0;0;0;0;0;0;0;0;1450
2.192;206.3507572;206.3507572;0;206.3507572;206.3507572;206.3507572;206.3507572;0;1455
2.194;412.7015144;412.7015144;0;412.7015144;412.7015144;412.7015144;412.7015144;0;1459
2.196;619.0522716;619.0522716;0;619.0522716;619.0522716;619.0522716;619.0522716;0;1463
2.198;619.0522716;619.0522716;0;619.0522716;619.0522716;619.0522716;619.0522716;0;1466
2.2;825.4030288;825.4030288;0;825.4030288;825.4030288;825.4030288;825.4030288;0;1469
2.202;825.4030288;825.4030288;0;825.4030288;825.4030288;825.4030288;825.4030288;0;1472
2.204;1031.753786;1031.753786;0;1031.753786;1031.753786;1031.753786;1031.753786;0;1473
2.206;1031.753786;1031.753786;0;1031.753786;1031.753786;1031.753786;1031.753786;0;1475
2.208;1238.104543;1238.104543;0;1238.104543;1238.104543;1238.104543;1238.104543;0;1478
2.21;1238.104543;1238.104543;0;1238.104543;1238.104543;1238.104543;1238.104543;0;1481
2.212;1650.806058;1650.806058;0;1650.806058;1650.806058;1650.806058;1650.806058;0;1462
2.214;619.0522716;619.0522716;0;619.0522716;619.0522716;619.0522716;619.0522716;0;1446
2.216;0;0;0;0;0;0;0;0;1451
2.218;206.3507572;206.3507572;0;206.3507572;206.3507572;206.3507572;206.3507572;0;1456
2.22;412.7015144;412.7015144;0;412.7015144;412.7015144;412.7015144;412.7015144;0;1456
2.222;412.7015144;412.7015144;0;412.7015144;412.7015144;412.7015144;412.7015144;0;1458
2.224;412.7015144;412.7015144;0;412.7015144;412.7015144;412.7015144;412.7015144;0;1461
2.226;619.0522716;619.0522716;0;619.0522716;619.0522716;619.0522716;619.0522716;0;1466
2.228;825.4030288;825.4030288;0;825.4030288;825.4030288;825.4030288;825.4030288;0;1470
2.23;1031.753786;1031.753786;0;1031.753786;1031.753786;1031.753786;1031.753786;0;1473
2.232;1031.753786;1031.753786;0;1031.753786;1031.753786;1031.753786;1031.753786;0;1474
2.234;1031.753786;1031.753786;0;1031.753786;1031.753786;1031.753786;1031.753786;0;1477
2.236;1238.104543;1238.104543;0;1238.104543;1238.104543;1238.104543;1238.104543;0;1479
2.238;1650.806058;1650.806058;0;1650.806058;1650.806058;1650.806058;1650.806058;0;1464
2.24;825.4030288;825.4030288;0;825.4030288;825.4030288;825.4030288;825.4030288;0;1448
2.242;206.3507572;206.3507572;0;206.3507572;206.3507572;206.3507572;206.3507572;0;1454
2.244;412.7015144;412.7015144;0;412.7015144;412.7015144;412.7015144;412.7015144;0;1458
2.246;412.7015144;412.7015144;0;412.7015144;412.7015144;412.7015144;412.7015144;0;1462
2.248;619.0522716;619.0522716;0;619.0522716;619.0522716;619.0522716;619.0522716;0;1467
2.25;825.4030288;825.4030288;0;825.4030288;825.4030288;825.4030288;825.4030288;0;1470
2.252;1031.753786;1031.753786;0;1031.753786;1031.753786;1031.753786;1031.753786;0;1473
2.254;1031.753786;1031.753786;0;1031.753786;1031.753786;1031.753786;1031.753786;0;1475
2.256;1238.104543;1238.104543;0;1238.104543;1238.104543;1238.104543;1238.104543;0;1477
2.258;1238.104543;1238.104543;0;1238.104543;1238.104543;1238.104543;1238.104543;0;1478
2.26;1238.104543;1238.104543;0;1238.104543;1238.104543;1238.104543;1238.104543;0;1480
2.262;1238.104543;1238.104543;0;1238.104543;1238.104543;1238.104543;1238.104543;0;1482
2.264;1650.806058;1650.806058;0;1650.806058;1650.806058;1650.806058;1650.806058;0;1464
2.266;825.4030288;825.4030288;0;825.4030288;825.4030288;825.4030288;825.4030288;0;1449
2.268;206.3507572;206.3507572;0;206.3507572;206.3507572;206.3507572;206.3507572;0;1454
2.27;412.7015144;412.7015144;0;412.7015144;412.7015144;412.7015144;412.7015144;0;1459
2.272;619.0522716;619.0522716;0;619.0522716;619.0522716;619.0522716;619.0522716;0;1462
2.274;619.0522716;619.0522716;0;619.0522716;619.0522716;619.0522716;619.0522716;0;1464
2.276;825.4030288;825.4030288;0;825.4030288;825.4030288;825.4030288;825.4030288;0;1467
2.278;825.4030288;825.4030288;0;825.4030288;825.4030288;825.4030288;825.4030288;0;1470
2.28;1031.753786;1031.753786;0;1031.753786;1031.753786;1031.753786;1031.753786;0;1471
2.282;1031.753786;1031.753786;0;1031.753786;1031.753786;1031.753786;1031.753786;0;1474
2.284;1031.753786;1031.753786;0;1031.753786;1031.753786;1031.753786;1031.753786;0;1475
2.286;1238.104543;1238.104543;0;1238.104543;1238.104543;1238.104543;1238.104543;0;1477
2.288;1238.104543;1238.104543;0;1238.104543;1238.104543;1238.104543;1238.104543;0;1479
2.29;1650.806058;1650.806058;0;1650.806058;1650.806058;1650.806058;1650.806058;0;1461
2.292;619.0522716;619.0522716;0;619.0522716;619.0522716;619.0522716;619.0522716;0;1445
2.294;0;0;0;0;0;0;0;0;1450
2.296;206.3507572;206.3507572;0;206.3507572;206.3507572;206.3507572;206.3507572;0;1454
2.298;412.7015144;412.7015144;0;412.7015144;412.7015144;412.7015144;412.7015144;0;1445
2.3;0;0;0;0;0;0;0;0;1447
2.302;0;0;0;0;0;0;0;0;1452
2.304;206.3507572;206.3507572;0;206.3507572;206.3507572;206.3507572;206.3507572;0;1457
2.306;412.7015144;412.7015144;0;412.7015144;412.7015144;412.7015144;412.7015144;0;1461
2.308;619.0522716;619.0522716;0;619.0522716;619.0522716;619.0522716;619.0522716;0;1464
2.31;825.4030288;825.4030288;0;825.4030288;825.4030288;825.4030288;825.4030288;0;1467
2.312;825.4030288;825.4030288;0;825.4030288;825.4030288;825.4030288;825.4030288;0;1470
2.314;1031.753786;1031.753786;0;1031.753786;1031.753786;1031.753786;1031.753786;0;1472
2.316;1650.806058;1650.806058;0;1650.806058;1650.806058;1650.806058;1650.806058;0;1452
2.318;206.3507572;206.3507572;0;206.3507572;206.3507572;206.3507572;206.3507572;0;1437
2.32;3095.261358;3095.261358;0;3095.261358;3095.261358;3095.261358;3095.261358;0;1443
2.322;0;0;0;0;0;0;0;0;1449
2.324;206.3507572;206.3507572;0;206.3507572;206.3507572;206.3507572;206.3507572;0;1452
2.326;206.3507572;206.3507572;0;206.3507572;206.3507572;206.3507572;206.3507572;0;1456
2.328;412.7015144;412.7015144;0;412.7015144;412.7015144;412.7015144;412.7015144;0;1460
2.33;619.0522716;619.0522716;0;619.0522716;619.0522716;619.0522716;619.0522716;0;1464
2.332;825.4030288;825.4030288;0;825.4030288;825.4030288;825.4030288;825.4030288;0;1467
2.334;825.4030288;825.4030288;0;825.4030288;825.4030288;825.4030288;825.4030288;0;1470
2.336;1031.753786;1031.753786;0;1031.753786;1031.753786;1031.753786;1031.753786;0;1466
2.338;825.4030288;825.4030288;0;825.4030288;825.4030288;825.4030288;825.4030288;0;1469
2.34;825.4030288;825.4030288;0;825.4030288;825.4030288;825.4030288;825.4030288;0;1468
2.342;1650.806058;1650.806058;0;1650.806058;1650.806058;1650.806058;1650.806058;0;1452
2.344;206.3507572;206.3507572;0;206.3507572;206.3507572;206.3507572;206.3507572;0;1437
2.346;3095.261358;3095.261358;0;3095.261358;3095.261358;3095.261358;3095.261358;0;1442
2.348;0;0;0;0;0;0;0;0;1445
2.35;0;0;0;0;0;0;0;0;1451
2.352;206.3507572;206.3507572;0;206.3507572;206.3507572;206.3507572;206.3507572;0;1454
2.354;412.7015144;412.7015144;0;412.7015144;412.7015144;412.7015144;412.7015144;0;1459
2.356;619.0522716;619.0522716;0;619.0522716;619.0522716;619.0522716;619.0522716;0;1462
2.358;619.0522716;619.0522716;0;619.0522716;619.0522716;619.0522716;619.0522716;0;1465
2.36;825.4030288;825.4030288;0;825.4030288;825.4030288;825.4030288;825.4030288;0;1468
2.362;825.4030288;825.4030288;0;825.4030288;825.4030288;825.4030288;825.4030288;0;1471
2.364;1031.753786;1031.753786;0;1031.753786;1031.753786;1031.753786;1031.753786;0;1471
2.366;1031.753786;1031.753786;0;1031.753786;1031.753786;1031.753786;1031.753786;0;1472
2.368;1650.806058;1650.806058;0;1650.806058;1650.806058;1650.806058;1650.806058;0;1457
2.37;412.7015144;412.7015144;0;412.7015144;412.7015144;412.7015144;412.7015144;0;1441
2.372;3095.261358;3095.261358;0;3095.261358;3095.261358;3095.261358;3095.261358;0;1447
2.374;0;0;0;0;0;0;0;0;1451
2.376;206.3507572;206.3507572;0;206.3507572;206.3507572;206.3507572;206.3507572;0;1455
2.378;412.7015144;412.7015144;0;412.7015144;412.7015144;412.7015144;412.7015144;0;1459
2.38;619.0522716;619.0522716;0;619.0522716;619.0522716;619.0522716;619.0522716;0;1463
2.382;619.0522716;619.0522716;0;619.0522716;619.0522716;619.0522716;619.0522716;0;1466
2.384;825.4030288;825.4030288;0;825.4030288;825.4030288;825.4030288;825.4030288;0;1469
2.386;825.4030288;825.4030288;0;825.4030288;825.4030288;825.4030288;825.4030288;0;1471
2.388;1031.753786;1031.753786;0;1031.753786;1031.753786;1031.753786;1031.753786;0;1473
2.39;1031.753786;1031.753786;0;1031.753786;1031.753786;1031.753786;1031.753786;0;1475
2.392;1238.104543;1238.104543;0;1238.104543;1238.104543;1238.104543;1238.104543;0;1477
2.394;1650.806058;1650.806058;0;1650.806058;1650.806058;1650.806058;1650.806058;0;1459
2.396;619.0522716;619.0522716;0;619.0522716;619.0522716;619.0522716;619.0522716;0;1444
2.398;0;0;0;0;0;0;0;0;1446
2.4;0;0;0;0;0;0;0;0;1451
2.402;206.3507572;206.3507572;0;206.3507572;206.3507572;206.3507572;206.3507572;0;1455
2.404;412.7015144;412.7015144;0;412.7015144;412.7015144;412.7015144;412.7015144;0;1459
2.406;619.0522716;619.0522716;0;619.0522716;619.0522716;619.0522716;619.0522716;0;1462
2.408;619.0522716;619.0522716;0;619.0522716;619.0522716;619.0522716;619.0522716;0;1465
2.41;825.4030288;825.4030288;0;825.4030288;825.4030288;825.4030288;825.4030288;0;1467
2.412;825.4030288;825.4030288;0;825.4030288;825.4030288;825.4030288;825.4030288;0;1470
2.414;1031.753786;1031.753786;0;1031.753786;1031.753786;1031.753786;1031.753786;0;1472
2.416;1031.753786;1031.753786;0;1031.753786;1031.753786;1031.753786;1031.753786;0;1474
2.418;1031.753786;1031.753786;0;1031.753786;1031.753786;1031.753786;1031.753786;0;1476
2.42;1650.806058;1650.806058;0;1650.806058;1650.806058;1650.806058;1650.806058;0;1460
2.422;619.0522716;619.0522716;0;619.0522716;619.0522716;619.0522716;619.0522716;0;1445
2.424;0;0;0;0;0;0;0;0;1450
2.426;206.3507572;206.3507572;0;206.3507572;206.3507572;206.3507572;206.3507572;0;1455
2.428;412.7015144;412.7015144;0;412.7015144;412.7015144;412.7015144;412.7015144;0;1461
2.43;619.0522716;619.0522716;0;619.0522716;619.0522716;619.0522716;619.0522716;0;1466
2.432;825.4030288;825.4030288;0;825.4030288;825.4030288;825.4030288;825.4030288;0;1470
2.434;1031.753786;1031.753786;0;1031.753786;1031.753786;1031.753786;1031.753786;0;1470
2.436;1031.753786;1031.753786;0;1031.753786;1031.753786;1031.753786;1031.753786;0;1472
2.438;1031.753786;1031.753786;0;1031.753786;1031.753786;1031.753786;1031.753786;0;1474
2.44;1031.753786;1031.753786;0;1031.753786;1031.753786;1031.753786;1031.753786;0;1475
2.442;1238.104543;1238.104543;0;1238.104543;1238.104543;1238.104543;1238.104543;0;1477
2.444;1238.104543;1238.104543;0;1238.104543;1238.104543;1238.104543;1238.104543;0;1478
2.446;1650.806058;1650.806058;0;1650.806058;1650.806058;1650.806058;1650.806058;0;1456
2.448;412.7015144;412.7015144;0;412.7015144;412.7015144;412.7015144;412.7015144;0;1441
2.45;3095.261358;3095.261358;0;3095.261358;3095.261358;3095.261358;3095.261358;0;1447
2.452;0;0;0;0;0;0;0;0;1451
2.454;206.3507572;206.3507572;0;206.3507572;206.3507572;206.3507572;206.3507572;0;1456
2.456;412.7015144;412.7015144;0;412.7015144;412.7015144;412.7015144;412.7015144;0;1458
2.458;412.7015144;412.7015144;0;412.7015144;412.7015144;412.7015144;412.7015144;0;1463
2.46;619.0522716;619.0522716;0;619.0522716;619.0522716;619.0522716;619.0522716;0;1466
2.462;825.4030288;825.4030288;0;825.4030288;825.4030288;825.4030288;825.4030288;0;1470
2.464;1031.753786;1031.753786;0;1031.753786;1031.753786;1031.753786;1031.753786;0;1472
2.466;1031.753786;1031.753786;0;1031.753786;1031.753786;1031.753786;1031.753786;0;1475
2.468;1238.104543;1238.104543;0;1238.104543;1238.104543;1238.104543;1238.104543;0;1476
2.47;1238.104543;1238.104543;0;1238.104543;1238.104543;1238.104543;1238.104543;0;1479
2.472;1650.806058;1650.806058;0;1650.806058;1650.806058;1650.806058;1650.806058;0;1461
2.474;619.0522716;619.0522716;0;619.0522716;619.0522716;619.0522716;619.0522716;0;1446
2.476;0;0;0;0;0;0;0;0;1451
2.478;206.3507572;206.3507572;0;206.3507572;206.3507572;206.3507572;206.3507572;0;1456
2.48;412.7015144;412.7015144;0;412.7015144;412.7015144;412.7015144;412.7015144;0;1462
2.482;619.0522716;619.0522716;0;619.0522716;619.0522716;619.0522716;619.0522716;0;1465
2.484;825.4030288;825.4030288;0;825.4030288;825.4030288;825.4030288;825.4030288;0;1468
2.486;825.4030288;825.4030288;0;825.4030288;825.4030288;825.4030288;825.4030288;0;1471
2.488;1031.753786;1031.753786;0;1031.753786;1031.753786;1031.753786;1031.753786;0;1472
2.49;1031.753786;1031.753786;0;1031.753786;1031.753786;1031.753786;1031.753786;0;1473
2.492;1031.753786;1031.753786;0;1031.753786;1031.753786;1031.753786;1031.753786;0;1476
2.494;1238.104543;1238.104543;0;1238.104543;1238.104543;1238.104543;1238.104543;0;1477
2.496;1238.104543;1238.104543;0;1238.104543;1238.104543;1238.104543;1238.104543;0;1479
2.498;1650.806058;1650.806058;0;1650.806058;1650.806058;1650.806058;1650.806058;0;1461
2.5;619.0522716;619.0522716;0;619.0522716;619.0522716;619.0522716;619.0522716;0;1445
2.502;0;0;0;0;0;0;0;0;1450
2.504;206.3507572;206.3507572;0;206.3507572;206.3507572;206.3507572;206.3507572;0;1454
2.506;412.7015144;412.7015144;0;412.7015144;412.7015144;412.7015144;412.7015144;0;1458
2.508;412.7015144;412.7015144;0;412.7015144;412.7015144;412.7015144;412.7015144;0;1462
2.51;619.0522716;619.0522716;0;619.0522716;619.0522716;619.0522716;619.0522716;0;1465
2.512;825.4030288;825.4030288;0;825.4030288;825.4030288;825.4030288;825.4030288;0;1467
2.514;825.4030288;825.4030288;0;825.4030288;825.4030288;825.4030288;825.4030288;0;1470
2.516;1031.753786;1031.753786;0;1031.753786;1031.753786;1031.753786;1031.753786;0;1472
2.518;1031.753786;1031.753786;0;1031.753786;1031.753786;1031.753786;1031.753786;0;1474
2.52;1031.753786;1031.753786;0;1031.753786;1031.753786;1031.753786;1031.753786;0;1477
2.522;1238.104543;1238.104543;0;1238.104543;1238.104543;1238.104543;1238.104543;0;1479
2.524;1650.806058;1650.806058;0;1650.806058;1650.806058;1650.806058;1650.806058;0;1481
2.526;1444.4553;1444.4553;0;1444.4553;1444.4553;1444.4553;1444.4553;0;1462
2.528;619.0522716;619.0522716;0;619.0522716;619.0522716;619.0522716;619.0522716;0;1466
2.53;825.4030288;825.4030288;0;825.4030288;825.4030288;825.4030288;825.4030288;0;1449
2.532;206.3507572;206.3507572;0;206.3507572;206.3507572;206.3507572;206.3507572;0;1455
2.534;412.7015144;412.7015144;0;412.7015144;412.7015144;412.7015144;412.7015144;0;1460
2.536;619.0522716;619.0522716;0;619.0522716;619.0522716;619.0522716;619.0522716;0;1463
2.538;619.0522716;619.0522716;0;619.0522716;619.0522716;619.0522716;619.0522716;0;1465
2.54;825.4030288;825.4030288;0;825.4030288;825.4030288;825.4030288;825.4030288;0;1459
2.542;619.0522716;619.0522716;0;619.0522716;619.0522716;619.0522716;619.0522716;0;1461
2.544;619.0522716;619.0522716;0;619.0522716;619.0522716;619.0522716;619.0522716;0;1466
2.546;825.4030288;825.4030288;0;825.4030288;825.4030288;825.4030288;825.4030288;0;1467
2.548;825.4030288;825.4030288;0;825.4030288;825.4030288;825.4030288;825.4030288;0;1471
2.55;1650.806058;1650.806058;0;1650.806058;1650.806058;1650.806058;1650.806058;0;1456
2.552;412.7015144;412.7015144;0;412.7015144;412.7015144;412.7015144;412.7015144;0;1440
2.554;3095.261358;3095.261358;0;3095.261358;3095.261358;3095.261358;3095.261358;0;1446
2.556;0;0;0;0;0;0;0;0;1450
2.558;206.3507572;206.3507572;0;206.3507572;206.3507572;206.3507572;206.3507572;0;1456
2.56;412.7015144;412.7015144;0;412.7015144;412.7015144;412.7015144;412.7015144;0;1459
2.562;619.0522716;619.0522716;0;619.0522716;619.0522716;619.0522716;619.0522716;0;1463
2.564;619.0522716;619.0522716;0;619.0522716;619.0522716;619.0522716;619.0522716;0;1467
2.566;825.4030288;825.4030288;0;825.4030288;825.4030288;825.4030288;825.4030288;0;1470
2.568;1031.753786;1031.753786;0;1031.753786;1031.753786;1031.753786;1031.753786;0;1472
2.57;1031.753786;1031.753786;0;1031.753786;1031.753786;1031.753786;1031.753786;0;1472
2.572;1031.753786;1031.753786;0;1031.753786;1031.753786;1031.753786;1031.753786;0;1475
2.574;1238.104543;1238.104543;0;1238.104543;1238.104543;1238.104543;1238.104543;0;1477
2.576;1650.806058;1650.806058;0;1650.806058;1650.806058;1650.806058;1650.806058;0;1460
2.578;619.0522716;619.0522716;0;619.0522716;619.0522716;619.0522716;619.0522716;0;1444
2.58;0;0;0;0;0;0;0;0;1449
2.582;206.3507572;206.3507572;0;206.3507572;206.3507572;206.3507572;206.3507572;0;1455
2.584;412.7015144;412.7015144;0;412.7015144;412.7015144;412.7015144;412.7015144;0;1459
2.586;619.0522716;619.0522716;0;619.0522716;619.0522716;619.0522716;619.0522716;0;1461
2.588;619.0522716;619.0522716;0;619.0522716;619.0522716;619.0522716;619.0522716;0;1465
2.59;825.4030288;825.4030288;0;825.4030288;825.4030288;825.4030288;825.4030288;0;1468
2.592;825.4030288;825.4030288;0;825.4030288;825.4030288;825.4030288;825.4030288;0;1471
2.594;1031.753786;1031.753786;0;1031.753786;1031.753786;1031.753786;1031.753786;0;1474
2.596;1031.753786;1031.753786;0;1031.753786;1031.753786;1031.753786;1031.753786;0;1474
2.598;1031.753786;1031.753786;0;1031.753786;1031.753786;1031.753786;1031.753786;0;1476
2.6;1238.104543;1238.104543;0;1238.104543;1238.104543;1238.104543;1238.104543;0;1477
2.602;1650.806058;1650.806058;0;1650.806058;1650.806058;1650.806058;1650.806058;0;1463
2.604;619.0522716;619.0522716;0;619.0522716;619.0522716;619.0522716;619.0522716;0;1447
2.606;0;0;0;0;0;0;0;0;1452
2.608;206.3507572;206.3507572;0;206.3507572;206.3507572;206.3507572;206.3507572;0;1457
2.61;412.7015144;412.7015144;0;412.7015144;412.7015144;412.7015144;412.7015144;0;1459
2.612;619.0522716;619.0522716;0;619.0522716;619.0522716;619.0522716;619.0522716;0;1461
2.614;619.0522716;619.0522716;0;619.0522716;619.0522716;619.0522716;619.0522716;0;1463
2.616;619.0522716;619.0522716;0;619.0522716;619.0522716;619.0522716;619.0522716;0;1466
2.618;825.4030288;825.4030288;0;825.4030288;825.4030288;825.4030288;825.4030288;0;1469
2.62;825.4030288;825.4030288;0;825.4030288;825.4030288;825.4030288;825.4030288;0;1472
2.622;1031.753786;1031.753786;0;1031.753786;1031.753786;1031.753786;1031.753786;0;1474
2.624;1031.753786;1031.753786;0;1031.753786;1031.753786;1031.753786;1031.753786;0;1477
2.626;1238.104543;1238.104543;0;1238.104543;1238.104543;1238.104543;1238.104543;0;1478
2.628;1650.806058;1650.806058;0;1650.806058;1650.806058;1650.806058;1650.806058;0;1481
2.63;1444.4553;1444.4553;0;1444.4553;1444.4553;1444.4553;1444.4553;0;1463
2.632;619.0522716;619.0522716;0;619.0522716;619.0522716;619.0522716;619.0522716;0;1467
2.634;825.4030288;825.4030288;0;825.4030288;825.4030288;825.4030288;825.4030288;0;1464
2.636;825.4030288;825.4030288;0;825.4030288;825.4030288;825.4030288;825.4030288;0;1467
2.638;825.4030288;825.4030288;0;825.4030288;825.4030288;825.4030288;825.4030288;0;1471
2.64;1031.753786;1031.753786;0;1031.753786;1031.753786;1031.753786;1031.753786;0;1474
2.642;1031.753786;1031.753786;0;1031.753786;1031.753786;1031.753786;1031.753786;0;1476
2.644;1238.104543;1238.104543;0;1238.104543;1238.104543;1238.104543;1238.104543;0;1477
2.646;1238.104543;1238.104543;0;1238.104543;1238.104543;1238.104543;1238.104543;0;1478
2.648;1238.104543;1238.104543;0;1238.104543;1238.104543;1238.104543;1238.104543;0;1480
2.65;1238.104543;1238.104543;0;1238.104543;1238.104543;1238.104543;1238.104543;0;1480
2.652;1238.104543;1238.104543;0;1238.104543;1238.104543;1238.104543;1238.104543;0;1482
2.654;1650.806058;1650.806058;0;1650.806058;1650.806058;1650.806058;1650.806058;0;1465
2.656;825.4030288;825.4030288;0;825.4030288;825.4030288;825.4030288;825.4030288;0;1448
2.658;206.3507572;206.3507572;0;206.3507572;206.3507572;206.3507572;206.3507572;0;1448
2.66;206.3507572;206.3507572;0;206.3507572;206.3507572;206.3507572;206.3507572;0;1453
2.662;412.7015144;412.7015144;0;412.7015144;412.7015144;412.7015144;412.7015144;0;1456
2.664;412.7015144;412.7015144;0;412.7015144;412.7015144;412.7015144;412.7015144;0;1461
2.666;619.0522716;619.0522716;0;619.0522716;619.0522716;619.0522716;619.0522716;0;1464
2.668;825.4030288;825.4030288;0;825.4030288;825.4030288;825.4030288;825.4030288;0;1460
2.67;619.0522716;619.0522716;0;619.0522716;619.0522716;619.0522716;619.0522716;0;1464
2.672;825.4030288;825.4030288;0;825.4030288;825.4030288;825.4030288;825.4030288;0;1465
2.674;825.4030288;825.4030288;0;825.4030288;825.4030288;825.4030288;825.4030288;0;1468
2.676;825.4030288;825.4030288;0;825.4030288;825.4030288;825.4030288;825.4030288;0;1468
2.678;825.4030288;825.4030288;0;825.4030288;825.4030288;825.4030288;825.4030288;0;1470
2.68;1650.806058;1650.806058;0;1650.806058;1650.806058;1650.806058;1650.806058;0;1445
2.682;0;0;0;0;0;0;0;0;1431
2.684;2888.910601;2888.910601;0;2888.910601;2888.910601;2888.910601;2888.910601;0;1437
2.686;3095.261358;3095.261358;0;3095.261358;3095.261358;3095.261358;3095.261358;0;1443
2.688;0;0;0;0;0;0;0;0;1449
2.69;206.3507572;206.3507572;0;206.3507572;206.3507572;206.3507572;206.3507572;0;1454
2.692;412.7015144;412.7015144;0;412.7015144;412.7015144;412.7015144;412.7015144;0;1458
2.694;412.7015144;412.7015144;0;412.7015144;412.7015144;412.7015144;412.7015144;0;1461
2.696;619.0522716;619.0522716;0;619.0522716;619.0522716;619.0522716;619.0522716;0;1464
2.698;825.4030288;825.4030288;0;825.4030288;825.4030288;825.4030288;825.4030288;0;1466
2.7;825.4030288;825.4030288;0;825.4030288;825.4030288;825.4030288;825.4030288;0;1469
2.702;825.4030288;825.4030288;0;825.4030288;825.4030288;825.4030288;825.4030288;0;1472
2.704;1031.753786;1031.753786;0;1031.753786;1031.753786;1031.753786;1031.753786;0;1474
2.706;1650.806058;1650.806058;0;1650.806058;1650.806058;1650.806058;1650.806058;0;1457
2.708;412.7015144;412.7015144;0;412.7015144;412.7015144;412.7015144;412.7015144;0;1442
2.71;0;0;0;0;0;0;0;0;1447
2.712;0;0;0;0;0;0;0;0;1451
2.714;206.3507572;206.3507572;0;206.3507572;206.3507572;206.3507572;206.3507572;0;1456
2.716;412.7015144;412.7015144;0;412.7015144;412.7015144;412.7015144;412.7015144;0;1460
2.718;619.0522716;619.0522716;0;619.0522716;619.0522716;619.0522716;619.0522716;0;1461
2.72;619.0522716;619.0522716;0;619.0522716;619.0522716;619.0522716;619.0522716;0;1465
2.722;825.4030288;825.4030288;0;825.4030288;825.4030288;825.4030288;825.4030288;0;1468
2.724;825.4030288;825.4030288;0;825.4030288;825.4030288;825.4030288;825.4030288;0;1470
2.726;1031.753786;1031.753786;0;1031.753786;1031.753786;1031.753786;1031.753786;0;1472
2.728;1031.753786;1031.753786;0;1031.753786;1031.753786;1031.753786;1031.753786;0;1475
2.73;1238.104543;1238.104543;0;1238.104543;1238.104543;1238.104543;1238.104543;0;1478
2.732;1650.806058;1650.806058;0;1650.806058;1650.806058;1650.806058;1650.806058;0;1461
2.734;619.0522716;619.0522716;0;619.0522716;619.0522716;619.0522716;619.0522716;0;1445
2.736;0;0;0;0;0;0;0;0;1449
2.738;206.3507572;206.3507572;0;206.3507572;206.3507572;206.3507572;206.3507572;0;1451
2.74;206.3507572;206.3507572;0;206.3507572;206.3507572;206.3507572;206.3507572;0;1455
2.742;412.7015144;412.7015144;0;412.7015144;412.7015144;412.7015144;412.7015144;0;1459
2.744;619.0522716;619.0522716;0;619.0522716;619.0522716;619.0522716;619.0522716;0;1461
2.746;619.0522716;619.0522716;0;619.0522716;619.0522716;619.0522716;619.0522716;0;1464
2.748;825.4030288;825.4030288;0;825.4030288;825.4030288;825.4030288;825.4030288;0;1467
2.75;825.4030288;825.4030288;0;825.4030288;825.4030288;825.4030288;825.4030288;0;1469
2.752;825.4030288;825.4030288;0;825.4030288;825.4030288;825.4030288;825.4030288;0;1472
2.754;1031.753786;1031.753786;0;1031.753786;1031.753786;1031.753786;1031.753786;0;1475
2.756;1238.104543;1238.104543;0;1238.104543;1238.104543;1238.104543;1238.104543;0;1476
2.758;1650.806058;1650.806058;0;1650.806058;1650.806058;1650.806058;1650.806058;0;1462
2.76;619.0522716;619.0522716;0;619.0522716;619.0522716;619.0522716;619.0522716;0;1446
2.762;0;0;0;0;0;0;0;0;1451
2.764;206.3507572;206.3507572;0;206.3507572;206.3507572;206.3507572;206.3507572;0;1456
2.766;412.7015144;412.7015144;0;412.7015144;412.7015144;412.7015144;412.7015144;0;1458
2.768;412.7015144;412.7015144;0;412.7015144;412.7015144;412.7015144;412.7015144;0;1462
2.77;619.0522716;619.0522716;0;619.0522716;619.0522716;619.0522716;619.0522716;0;1465
2.772;825.4030288;825.4030288;0;825.4030288;825.4030288;825.4030288;825.4030288;0;1466
2.774;825.4030288;825.4030288;0;825.4030288;825.4030288;825.4030288;825.4030288;0;1463
2.776;619.0522716;619.0522716;0;619.0522716;619.0522716;619.0522716;619.0522716;0;1465
2.778;825.4030288;825.4030288;0;825.4030288;825.4030288;825.4030288;825.4030288;0;1465
2.78;825.4030288;825.4030288;0;825.4030288;825.4030288;825.4030288;825.4030288;0;1468
2.782;825.4030288;825.4030288;0;825.4030288;825.4030288;825.4030288;825.4030288;0;1471
2.784;1650.806058;1650.806058;0;1650.806058;1650.806058;1650.806058;1650.806058;0;1453
2.786;412.7015144;412.7015144;0;412.7015144;412.7015144;412.7015144;412.7015144;0;1438
2.788;3095.261358;3095.261358;0;3095.261358;3095.261358;3095.261358;3095.261358;0;1445
2.79;0;0;0;0;0;0;0;0;1450
2.792;206.3507572;206.3507572;0;206.3507572;206.3507572;206.3507572;206.3507572;0;1454
2.794;412.7015144;412.7015144;0;412.7015144;412.7015144;412.7015144;412.7015144;0;1459
2.796;619.0522716;619.0522716;0;619.0522716;619.0522716;619.0522716;619.0522716;0;1463
2.798;619.0522716;619.0522716;0;619.0522716;619.0522716;619.0522716;619.0522716;0;1467
2.8;825.4030288;825.4030288;0;825.4030288;825.4030288;825.4030288;825.4030288;0;1466
2.802;825.4030288;825.4030288;0;825.4030288;825.4030288;825.4030288;825.4030288;0;1469
2.804;825.4030288;825.4030288;0;825.4030288;825.4030288;825.4030288;825.4030288;0;1471
2.806;1031.753786;1031.753786;0;1031.753786;1031.753786;1031.753786;1031.753786;0;1473
2.808;1031.753786;1031.753786;0;1031.753786;1031.753786;1031.753786;1031.753786;0;1477
2.81;1650.806058;1650.806058;0;1650.806058;1650.806058;1650.806058;1650.806058;0;1481
2.812;1444.4553;1444.4553;0;1444.4553;1444.4553;1444.4553;1444.4553;0;1482
2.814;1444.4553;1444.4553;0;1444.4553;1444.4553;1444.4553;1444.4553;0;1463
2.816;619.0522716;619.0522716;0;619.0522716;619.0522716;619.0522716;619.0522716;0;1466
2.818;825.4030288;825.4030288;0;825.4030288;825.4030288;825.4030288;825.4030288;0;1470
2.82;1031.753786;1031.753786;0;1031.753786;1031.753786;1031.753786;1031.753786;0;1473
2.822;1031.753786;1031.753786;0;1031.753786;1031.753786;1031.753786;1031.753786;0;1475
2.824;1238.104543;1238.104543;0;1238.104543;1238.104543;1238.104543;1238.104543;0;1474
2.826;1031.753786;1031.753786;0;1031.753786;1031.753786;1031.753786;1031.753786;0;1476
2.828;1238.104543;1238.104543;0;1238.104543;1238.104543;1238.104543;1238.104543;0;1478
2.83;1238.104543;1238.104543;0;1238.104543;1238.104543;1238.104543;1238.104543;0;1479
2.832;1238.104543;1238.104543;0;1238.104543;1238.104543;1238.104543;1238.104543;0;1480
2.834;1238.104543;1238.104543;0;1238.104543;1238.104543;1238.104543;1238.104543;0;1481
2.836;1650.806058;1650.806058;0;1650.806058;1650.806058;1650.806058;1650.806058;0;1463
2.838;619.0522716;619.0522716;0;619.0522716;619.0522716;619.0522716;619.0522716;0;1447
2.84;0;0;0;0;0;0;0;0;1451
2.842;206.3507572;206.3507572;0;206.3507572;206.3507572;206.3507572;206.3507572;0;1455
2.844;412.7015144;412.7015144;0;412.7015144;412.7015144;412.7015144;412.7015144;0;1459
2.846;619.0522716;619.0522716;0;619.0522716;619.0522716;619.0522716;619.0522716;0;1462
2.848;619.0522716;619.0522716;0;619.0522716;619.0522716;619.0522716;619.0522716;0;1466
2.85;825.4030288;825.4030288;0;825.4030288;825.4030288;825.4030288;825.4030288;0;1468
2.852;825.4030288;825.4030288;0;825.4030288;825.4030288;825.4030288;825.4030288;0;1470
2.854;1031.753786;1031.753786;0;1031.753786;1031.753786;1031.753786;1031.753786;0;1472
2.856;1031.753786;1031.753786;0;1031.753786;1031.753786;1031.753786;1031.753786;0;1475
2.858;1238.104543;1238.104543;0;1238.104543;1238.104543;1238.104543;1238.104543;0;1476
2.86;1238.104543;1238.104543;0;1238.104543;1238.104543;1238.104543;1238.104543;0;1478
2.862;1650.806058;1650.806058;0;1650.806058;1650.806058;1650.806058;1650.806058;0;1463
2.864;619.0522716;619.0522716;0;619.0522716;619.0522716;619.0522716;619.0522716;0;1446
2.866;0;0;0;0;0;0;0;0;1451
