0.002;638.3976551;1650.806058;0;1444.4553;1650.806058;1650.806058;1650.806058;0;1333
0.004;1444.4553;1444.4553;0;1444.4553;1444.4553;1444.4553;1444.4553;0;1332
0.006;1650.806058;2269.858329;0;1238.104543;1444.4553;1444.4553;1444.4553;0;1332
0.008;1650.806058;2063.507572;0;1031.753786;1444.4553;1444.4553;1444.4553;0;1331
0.01;1444.4553;1238.104543;0;1238.104543;1444.4553;1444.4553;1444.4553;0;1339
0.012;1650.806058;1650.806058;0;1444.4553;1444.4553;1444.4553;1444.4553;0;1338
0.014;1650.806058;1444.4553;0;1650.806058;1650.806058;1650.806058;1650.806058;0;1337
0.016;1650.806058;2063.507572;0;1650.806058;1444.4553;1444.4553;1444.4553;0;1336
0.018;1650.806058;2269.858329;0;1650.806058;1650.806058;1650.806058;1650.806058;0;1335
0.02;1444.4553;1857.156815;0;1444.4553;1650.806058;1650.806058;1650.806058;0;1334
0.022;1650.806058;619.0522716;0;1444.4553;1444.4553;1444.4553;1444.4553;0;1334
0.024;1650.806058;1650.806058;0;1444.4553;1444.4553;1444.4553;1444.4553;0;1334
0.026;1650.806058;2063.507572;0;1238.104543;1444.4553;1444.4553;1444.4553;0;1333
0.028;1650.806058;1031.753786;0;1650.806058;1444.4553;1444.4553;1444.4553;0;1336
0.03;1650.806058;1444.4553;0;1857.156815;1444.4553;1444.4553;1444.4553;0;1335
0.032;1650.806058;2063.507572;0;1650.806058;1444.4553;1444.4553;1444.4553;0;1334
0.034;1650.806058;1444.4553;0;1444.4553;1444.4553;1444.4553;1444.4553;0;1334
0.036;1444.4553;825.4030288;0;1238.104543;1444.4553;1444.4553;1444.4553;0;1333
0.038;1650.806058;412.7015144;0;1444.4553;1444.4553;1444.4553;1444.4553;0;1333
0.04;1650.806058;1857.156815;0;1238.104543;1444.4553;1444.4553;1444.4553;0;1332
0.042;1444.4553;2269.858329;0;1238.104543;1650.806058;1650.806058;1650.806058;0;1340
0.044;1238.104543;2063.507572;0;1238.104543;1650.806058;1650.806058;1650.806058;0;1338
0.046;1238.104543;2269.858329;0;1444.4553;1444.4553;1444.4553;1444.4553;0;1338
0.048;1444.4553;2063.507572;0;1650.806058;1444.4553;1444.4553;1444.4553;0;1337
0.05;1650.806058;1031.753786;0;1857.156815;1444.4553;1444.4553;1444.4553;0;1336
0.052;1650.806058;825.4030288;0;1650.806058;1444.4553;1444.4553;1444.4553;0;1335
0.054;1650.806058;1031.753786;0;1444.4553;1444.4553;1444.4553;1444.4553;0;1333
0.056;1650.806058;1444.4553;0;1444.4553;1444.4553;1444.4553;1444.4553;0;1332
0.058;1650.806058;1857.156815;0;1238.104543;1444.4553;1444.4553;1444.4553;0;1331
0.06;1444.4553;1857.156815;0;1238.104543;1444.4553;1444.4553;1444.4553;0;1331
0.062;1650.806058;1857.156815;0;1238.104543;1444.4553;1444.4553;1444.4553;0;1331
0.064;1650.806058;2063.507572;0;1444.4553;1444.4553;1444.4553;1444.4553;0;1330
0.066;1650.806058;2063.507572;0;1650.806058;1444.4553;1444.4553;1444.4553;0;1330
0.068;1650.806058;1650.806058;0;1650.806058;1444.4553;1444.4553;1444.4553;0;1330
0.07;1650.806058;1857.156815;0;1857.156815;1444.4553;1444.4553;1444.4553;0;1330
0.072;1444.4553;1238.104543;0;1444.4553;1444.4553;1444.4553;1444.4553;0;1330
0.074;1444.4553;412.7015144;0;1444.4553;1444.4553;1444.4553;1444.4553;0;1329
0.076;1444.4553;1857.156815;0;1238.104543;1444.4553;1444.4553;1444.4553;0;1329
0.078;1650.806058;1857.156815;0;1238.104543;1444.4553;1444.4553;1444.4553;0;1329
0.08;1238.104543;1650.806058;0;1444.4553;1650.806058;1650.806058;1650.806058;0;1335
0.082;1444.4553;1238.104543;0;1650.806058;1650.806058;1650.806058;1650.806058;0;1335
0.084;1444.4553;1650.806058;0;1444.4553;1444.4553;1444.4553;1444.4553;0;1334
0.086;1444.4553;1031.753786;0;1238.104543;1444.4553;1444.4553;1444.4553;0;1334
0.088;1650.806058;1444.4553;0;1238.104543;1444.4553;1444.4553;1444.4553;0;1333
0.09;1650.806058;2476.209086;0;1444.4553;1444.4553;1444.4553;1444.4553;0;1332
0.092;1650.806058;2888.910601;0;1444.4553;1650.806058;1650.806058;1650.806058;0;1339
0.094;1650.806058;1238.104543;0;1444.4553;1444.4553;1444.4553;1444.4553;0;1338
0.096;1444.4553;0;0;1650.806058;1444.4553;1444.4553;1444.4553;0;1337
0.098;1444.4553;1031.753786;0;1650.806058;1444.4553;1444.4553;1444.4553;0;1336
0.1;1650.806058;1444.4553;0;1650.806058;1444.4553;1444.4553;1444.4553;0;1336
0.102;1444.4553;1444.4553;0;1650.806058;1444.4553;1444.4553;1444.4553;0;1335
0.104;1444.4553;2063.507572;0;1444.4553;1444.4553;1444.4553;1444.4553;0;1334
0.106;1444.4553;1650.806058;0;1238.104543;1444.4553;1444.4553;1444.4553;0;1331
0.108;1650.806058;2063.507572;0;1238.104543;1444.4553;1444.4553;1444.4553;0;1330
0.11;1650.806058;1857.156815;0;1238.104543;1444.4553;1444.4553;1444.4553;0;1329
0.112;1650.806058;1650.806058;0;1444.4553;1444.4553;1444.4553;1444.4553;0;1329
0.114;1650.806058;1444.4553;0;1650.806058;1444.4553;1444.4553;1444.4553;0;1329
0.116;1650.806058;2269.858329;0;1650.806058;1444.4553;1444.4553;1444.4553;0;1328
0.118;1650.806058;2269.858329;0;1857.156815;1650.806058;1650.806058;1650.806058;0;1328
0.12;1650.806058;1031.753786;0;1650.806058;1650.806058;1650.806058;1650.806058;0;1328
0.122;1444.4553;1238.104543;0;1650.806058;1650.806058;1650.806058;1650.806058;0;1328
0.124;1444.4553;1857.156815;0;1444.4553;1444.4553;1444.4553;1444.4553;0;1328
0.126;1444.4553;1238.104543;0;1238.104543;1444.4553;1444.4553;1444.4553;0;1328
0.128;1650.806058;1238.104543;0;1238.104543;1444.4553;1444.4553;1444.4553;0;1333
0.13;1650.806058;1857.156815;0;2063.507572;1444.4553;1444.4553;1444.4553;0;1338
0.132;1650.806058;1444.4553;0;2063.507572;1444.4553;1444.4553;1444.4553;0;1335
0.134;1650.806058;1650.806058;0;1444.4553;1444.4553;1444.4553;1444.4553;0;1333
0.136;1650.806058;2476.209086;0;1650.806058;1650.806058;1650.806058;1650.806058;0;1333
0.138;1444.4553;3095.261358;0;1238.104543;1650.806058;1650.806058;1650.806058;0;1332
0.14;1444.4553;1444.4553;0;1238.104543;1444.4553;1444.4553;1444.4553;0;1331
0.142;1444.4553;0;0;1444.4553;1444.4553;1444.4553;1444.4553;0;1331
0.144;1444.4553;1238.104543;0;1444.4553;1444.4553;1444.4553;1444.4553;0;1330
0.146;1650.806058;1650.806058;0;1444.4553;1444.4553;1444.4553;1444.4553;0;1330
0.148;1650.806058;1857.156815;0;1650.806058;1444.4553;1444.4553;1444.4553;0;1329
0.15;1444.4553;2269.858329;0;1444.4553;1444.4553;1444.4553;1444.4553;0;1336
0.152;1650.806058;2063.507572;0;1238.104543;1444.4553;1444.4553;1444.4553;0;1335
0.154;1650.806058;1238.104543;0;1238.104543;1444.4553;1444.4553;1444.4553;0;1334
0.156;1650.806058;1650.806058;0;1238.104543;1650.806058;1650.806058;1650.806058;0;1334
0.158;1444.4553;619.0522716;0;1238.104543;1444.4553;1444.4553;1444.4553;0;1326
0.16;1650.806058;1444.4553;0;1238.104543;1444.4553;1444.4553;1444.4553;0;1326
0.162;1857.156815;2063.507572;0;1444.4553;1444.4553;1444.4553;1444.4553;0;1324
0.164;1857.156815;2682.559844;0;1444.4553;1444.4553;1444.4553;1444.4553;0;1325
0.166;1444.4553;2269.858329;0;1650.806058;1444.4553;1444.4553;1444.4553;0;1325
0.168;1238.104543;1444.4553;0;1857.156815;1650.806058;1650.806058;1650.806058;0;1325
0.17;1238.104543;1444.4553;0;1650.806058;1650.806058;1650.806058;1650.806058;0;1325
0.172;1650.806058;825.4030288;0;1444.4553;1650.806058;1650.806058;1650.806058;0;1325
0.174;1650.806058;412.7015144;0;1444.4553;1650.806058;1650.806058;1650.806058;0;1325
0.176;1650.806058;825.4030288;0;1444.4553;1444.4553;1444.4553;1444.4553;0;1325
0.178;1650.806058;1444.4553;0;1857.156815;1444.4553;1444.4553;1444.4553;0;1325
0.18;1650.806058;2063.507572;0;1650.806058;1444.4553;1444.4553;1444.4553;0;1325
0.182;1650.806058;2888.910601;0;1444.4553;1444.4553;1444.4553;1444.4553;0;1325
0.184;1444.4553;1857.156815;0;1444.4553;1444.4553;1444.4553;1444.4553;0;1330
0.186;1650.806058;2063.507572;0;1444.4553;1650.806058;1650.806058;1650.806058;0;1329
0.188;1444.4553;1857.156815;0;1444.4553;1650.806058;1650.806058;1650.806058;0;1334
0.19;1444.4553;1238.104543;0;2063.507572;1444.4553;1444.4553;1444.4553;0;1332
0.192;1444.4553;1650.806058;0;1238.104543;1444.4553;1444.4553;1444.4553;0;1336
0.194;1650.806058;1650.806058;0;1444.4553;1444.4553;1444.4553;1444.4553;0;1335
0.196;1650.806058;1857.156815;0;1444.4553;1444.4553;1444.4553;1444.4553;0;1334
0.198;1650.806058;2269.858329;0;1650.806058;1444.4553;1444.4553;1444.4553;0;1333
0.2;1650.806058;2063.507572;0;1857.156815;1444.4553;1444.4553;1444.4553;0;1331
0.202;1650.806058;1031.753786;0;1650.806058;1444.4553;1444.4553;1444.4553;0;1330
0.204;1444.4553;1238.104543;0;1444.4553;1650.806058;1650.806058;1650.806058;0;1329
0.206;1444.4553;1031.753786;0;1444.4553;1444.4553;1444.4553;1444.4553;0;1328
0.208;1650.806058;1238.104543;0;1238.104543;1444.4553;1444.4553;1444.4553;0;1327
0.21;1444.4553;1857.156815;0;1444.4553;1444.4553;1444.4553;1444.4553;0;1324
0.212;1444.4553;2063.507572;0;1444.4553;1444.4553;1444.4553;1444.4553;0;1324
0.214;1444.4553;2269.858329;0;1444.4553;1444.4553;1444.4553;1444.4553;0;1324
0.216;1444.4553;2063.507572;0;1238.104543;1444.4553;1444.4553;1444.4553;0;1324
0.218;1444.4553;1650.806058;0;1031.753786;1444.4553;1444.4553;1444.4553;0;1324
0.22;1650.806058;1238.104543;0;1031.753786;1444.4553;1444.4553;1444.4553;0;1323
0.222;1650.806058;825.4030288;0;1031.753786;1444.4553;1444.4553;1444.4553;0;1323
0.224;1650.806058;1650.806058;0;1031.753786;1444.4553;1444.4553;1444.4553;0;1322
0.226;1650.806058;2682.559844;0;1238.104543;1444.4553;1444.4553;1444.4553;0;1330
0.228;1444.4553;2063.507572;0;1444.4553;1444.4553;1444.4553;1444.4553;0;1329
0.23;1444.4553;619.0522716;0;1444.4553;1444.4553;1444.4553;1444.4553;0;1329
0.232;1444.4553;412.7015144;0;1650.806058;1444.4553;1444.4553;1444.4553;0;1328
0.234;1650.806058;825.4030288;0;1650.806058;1444.4553;1444.4553;1444.4553;0;1328
0.236;1650.806058;412.7015144;0;1857.156815;1444.4553;1444.4553;1444.4553;0;1321
0.238;1650.806058;1444.4553;0;1650.806058;1444.4553;1444.4553;1444.4553;0;1321
0.24;1444.4553;1650.806058;0;1444.4553;1650.806058;1650.806058;1650.806058;0;1321
0.242;1444.4553;1238.104543;0;1444.4553;1444.4553;1444.4553;1444.4553;0;1321
0.244;1444.4553;1650.806058;0;1444.4553;1444.4553;1444.4553;1444.4553;0;1322
0.246;1444.4553;1857.156815;0;1444.4553;1444.4553;1444.4553;1444.4553;0;1321
0.248;1650.806058;2269.858329;0;1444.4553;1444.4553;1444.4553;1444.4553;0;1329
0.25;1650.806058;2682.559844;0;1238.104543;1444.4553;1444.4553;1444.4553;0;1328
0.252;1650.806058;2269.858329;0;1444.4553;1444.4553;1444.4553;1444.4553;0;1327
0.254;1650.806058;1031.753786;0;1444.4553;1444.4553;1444.4553;1444.4553;0;1327
0.256;1444.4553;619.0522716;0;1444.4553;1444.4553;1444.4553;1444.4553;0;1326
0.258;1444.4553;825.4030288;0;1650.806058;1444.4553;1444.4553;1444.4553;0;1326
0.26;1444.4553;1444.4553;0;1444.4553;1444.4553;1444.4553;1444.4553;0;1326
0.262;1444.4553;2682.559844;0;1238.104543;1444.4553;1444.4553;1444.4553;0;1323
0.264;1444.4553;2063.507572;0;1238.104543;1650.806058;1650.806058;1650.806058;0;1322
0.266;1444.4553;412.7015144;0;1238.104543;1444.4553;1444.4553;1444.4553;0;1322
0.268;1444.4553;2063.507572;0;1444.4553;1444.4553;1444.4553;1444.4553;0;1322
0.27;1650.806058;2269.858329;0;1444.4553;1650.806058;1650.806058;1650.806058;0;1321
0.272;1444.4553;619.0522716;0;1650.806058;1650.806058;1650.806058;1650.806058;0;1321
0.274;1650.806058;1031.753786;0;1444.4553;1650.806058;1650.806058;1650.806058;0;1321
0.276;1650.806058;1031.753786;0;1650.806058;1444.4553;1444.4553;1444.4553;0;1321
0.278;1650.806058;1444.4553;0;1650.806058;1444.4553;1444.4553;1444.4553;0;1321
0.28;1650.806058;1650.806058;0;1238.104543;1444.4553;1444.4553;1444.4553;0;1321
0.282;1650.806058;1650.806058;0;1238.104543;1444.4553;1444.4553;1444.4553;0;1321
0.284;1650.806058;2063.507572;0;1444.4553;1444.4553;1444.4553;1444.4553;0;1320
0.286;1444.4553;2063.507572;0;1444.4553;1444.4553;1444.4553;1444.4553;0;1327
0.288;1650.806058;1857.156815;0;1650.806058;1444.4553;1444.4553;1444.4553;0;1329
0.29;1650.806058;2269.858329;0;1444.4553;1650.806058;1650.806058;1650.806058;0;1328
0.292;1650.806058;1857.156815;0;1238.104543;1650.806058;1650.806058;1650.806058;0;1327
0.294;1650.806058;1238.104543;0;1238.104543;1444.4553;1444.4553;1444.4553;0;1333
0.296;1444.4553;1444.4553;0;1238.104543;1444.4553;1444.4553;1444.4553;0;1332
0.298;1444.4553;1444.4553;0;1650.806058;1444.4553;1444.4553;1444.4553;0;1331
0.3;1444.4553;1238.104543;0;1650.806058;1444.4553;1444.4553;1444.4553;0;1330
0.302;1444.4553;2063.507572;0;1650.806058;1650.806058;1650.806058;1650.806058;0;1329
0.304;1650.806058;2269.858329;0;1857.156815;1444.4553;1444.4553;1444.4553;0;1328
0.306;1650.806058;2063.507572;0;1650.806058;1444.4553;1444.4553;1444.4553;0;1327
0.308;1650.806058;1857.156815;0;1444.4553;1444.4553;1444.4553;1444.4553;0;1326
0.31;1650.806058;825.4030288;0;1238.104543;1650.806058;1650.806058;1650.806058;0;1333
0.312;1444.4553;619.0522716;0;1444.4553;1444.4553;1444.4553;1444.4553;0;1332
0.314;1650.806058;1857.156815;0;1444.4553;1650.806058;1650.806058;1650.806058;0;1329
0.316;1444.4553;1650.806058;0;1444.4553;1650.806058;1650.806058;1650.806058;0;1328
0.318;1650.806058;1650.806058;0;1238.104543;1650.806058;1650.806058;1650.806058;0;1327
0.32;1857.156815;2682.559844;0;1444.4553;1444.4553;1444.4553;1444.4553;0;1326
0.322;1857.156815;2476.209086;0;1650.806058;1650.806058;1650.806058;1650.806058;0;1326
0.324;1650.806058;1444.4553;0;1444.4553;1650.806058;1650.806058;1650.806058;0;1326
0.326;1444.4553;1857.156815;0;1444.4553;1650.806058;1650.806058;1650.806058;0;1325
0.328;1444.4553;1857.156815;0;1444.4553;1650.806058;1650.806058;1650.806058;0;1325
0.33;1444.4553;412.7015144;0;1444.4553;1444.4553;1444.4553;1444.4553;0;1325
0.332;1444.4553;0;0;1650.806058;1444.4553;1444.4553;1444.4553;0;1324
0.334;1650.806058;1031.753786;0;1444.4553;1444.4553;1444.4553;1444.4553;0;1324
0.336;1650.806058;1444.4553;0;1238.104543;1444.4553;1444.4553;1444.4553;0;1330
0.338;1444.4553;1857.156815;0;1238.104543;1444.4553;1444.4553;1444.4553;0;1329
0.34;1444.4553;2269.858329;0;1444.4553;1444.4553;1444.4553;1444.4553;0;1329
0.342;1444.4553;2063.507572;0;1238.104543;1650.806058;1650.806058;1650.806058;0;1328
0.344;1444.4553;1031.753786;0;1444.4553;1444.4553;1444.4553;1444.4553;0;1327
0.346;1444.4553;825.4030288;0;1444.4553;1444.4553;1444.4553;1444.4553;0;1327
0.348;1444.4553;1444.4553;0;1444.4553;1444.4553;1444.4553;1444.4553;0;1334
0.35;1650.806058;2063.507572;0;1444.4553;1444.4553;1444.4553;1444.4553;0;1333
0.352;1650.806058;1857.156815;0;1444.4553;1444.4553;1444.4553;1444.4553;0;1332
0.354;1650.806058;1031.753786;0;1650.806058;1444.4553;1444.4553;1444.4553;0;1332
0.356;1650.806058;1031.753786;0;1857.156815;1444.4553;1444.4553;1444.4553;0;1331
0.358;1650.806058;1650.806058;0;1857.156815;1444.4553;1444.4553;1444.4553;0;1331
0.36;1650.806058;1650.806058;0;1650.806058;1444.4553;1444.4553;1444.4553;0;1331
0.362;1650.806058;1444.4553;0;1444.4553;1444.4553;1444.4553;1444.4553;0;1330
0.364;1857.156815;1444.4553;0;1238.104543;1444.4553;1444.4553;1444.4553;0;1330
0.366;1444.4553;1444.4553;0;1238.104543;1444.4553;1444.4553;1444.4553;0;1330
0.368;1444.4553;1650.806058;0;1238.104543;1444.4553;1444.4553;1444.4553;0;1330
0.37;1444.4553;1650.806058;0;1444.4553;1444.4553;1444.4553;1444.4553;0;1330
0.372;1650.806058;1857.156815;0;1650.806058;1444.4553;1444.4553;1444.4553;0;1330
0.374;1444.4553;1238.104543;0;1650.806058;1444.4553;1444.4553;1444.4553;0;1330
0.376;1444.4553;1031.753786;0;1650.806058;1444.4553;1444.4553;1444.4553;0;1331
0.378;1650.806058;1238.104543;0;1650.806058;1444.4553;1444.4553;1444.4553;0;1331
0.38;1650.806058;1238.104543;0;1444.4553;1444.4553;1444.4553;1444.4553;0;1331
0.382;1650.806058;1857.156815;0;1238.104543;1444.4553;1444.4553;1444.4553;0;1330
0.384;1650.806058;2063.507572;0;1238.104543;1444.4553;1444.4553;1444.4553;0;1338
0.386;1444.4553;1650.806058;0;1238.104543;1444.4553;1444.4553;1444.4553;0;1338
0.388;1444.4553;1444.4553;0;1857.156815;1444.4553;1444.4553;1444.4553;0;1337
0.39;1444.4553;1031.753786;0;1650.806058;1444.4553;1444.4553;1444.4553;0;1336
0.392;1444.4553;2476.209086;0;1444.4553;1444.4553;1444.4553;1444.4553;0;1346
0.394;1444.4553;1238.104543;0;1238.104543;1444.4553;1444.4553;1444.4553;0;1347
0.396;1444.4553;619.0522716;0;1238.104543;1444.4553;1444.4553;1444.4553;0;1347
0.398;1444.4553;1031.753786;0;1444.4553;1444.4553;1444.4553;1444.4553;0;1347
0.4;1444.4553;1650.806058;0;1444.4553;1444.4553;1444.4553;1444.4553;0;1346
0.402;1444.4553;1857.156815;0;1444.4553;1444.4553;1444.4553;1444.4553;0;1346
0.404;1650.806058;1857.156815;0;1444.4553;1650.806058;1650.806058;1650.806058;0;1346
0.406;1650.806058;1650.806058;0;1650.806058;1650.806058;1650.806058;1650.806058;0;1346
0.408;1650.806058;1857.156815;0;1650.806058;1650.806058;1650.806058;1650.806058;0;1347
0.41;1650.806058;2063.507572;0;1444.4553;1650.806058;1650.806058;1650.806058;0;1347
0.412;1444.4553;1444.4553;0;1238.104543;1650.806058;1650.806058;1650.806058;0;1348
0.414;1444.4553;1031.753786;0;1238.104543;1444.4553;1444.4553;1444.4553;0;1348
0.416;1650.806058;1031.753786;0;1444.4553;1444.4553;1444.4553;1444.4553;0;1348
0.418;1650.806058;1238.104543;0;1650.806058;1444.4553;1444.4553;1444.4553;0;1356
0.42;1650.806058;2063.507572;0;1444.4553;1444.4553;1444.4553;1444.4553;0;1363
0.422;1650.806058;2476.209086;0;1444.4553;1444.4553;1444.4553;1444.4553;0;1362
0.424;1650.806058;1444.4553;0;1238.104543;1444.4553;1444.4553;1444.4553;0;1361
0.426;1444.4553;1444.4553;0;1238.104543;1444.4553;1444.4553;1444.4553;0;1361
0.428;1650.806058;1444.4553;0;1444.4553;1444.4553;1444.4553;1444.4553;0;1361
0.43;1650.806058;1238.104543;0;1444.4553;1650.806058;1650.806058;1650.806058;0;1360
0.432;1650.806058;825.4030288;0;1444.4553;1444.4553;1444.4553;1444.4553;0;1360
0.434;1650.806058;2063.507572;0;1650.806058;1444.4553;1444.4553;1444.4553;0;1360
0.436;1650.806058;2269.858329;0;1650.806058;1444.4553;1444.4553;1444.4553;0;1359
0.438;1650.806058;1650.806058;0;1444.4553;1444.4553;1444.4553;1444.4553;0;1367
0.44;1650.806058;1857.156815;0;1444.4553;1444.4553;1444.4553;1444.4553;0;1366
0.442;1650.806058;1857.156815;0;1444.4553;1444.4553;1444.4553;1444.4553;0;1365
0.444;1238.104543;1857.156815;0;1444.4553;1444.4553;1444.4553;1444.4553;0;1365
0.446;1238.104543;619.0522716;0;1444.4553;1444.4553;1444.4553;1444.4553;0;1365
0.448;1650.806058;412.7015144;0;1650.806058;1444.4553;1444.4553;1444.4553;0;1364
0.45;1650.806058;1031.753786;0;1857.156815;1444.4553;1444.4553;1444.4553;0;1364
0.452;1650.806058;2269.858329;0;1857.156815;1444.4553;1444.4553;1444.4553;0;1363
0.454;1650.806058;2476.209086;0;1650.806058;1444.4553;1444.4553;1444.4553;0;1363
0.456;1650.806058;1857.156815;0;1650.806058;1444.4553;1444.4553;1444.4553;0;1363
0.458;1444.4553;825.4030288;0;1650.806058;1444.4553;1444.4553;1444.4553;0;1362
0.46;1650.806058;619.0522716;0;1650.806058;1444.4553;1444.4553;1444.4553;0;1362
0.462;1650.806058;1444.4553;0;1444.4553;1444.4553;1444.4553;1444.4553;0;1360
0.464;1650.806058;1444.4553;0;1444.4553;1444.4553;1444.4553;1444.4553;0;1360
0.466;1444.4553;1238.104543;0;1857.156815;1444.4553;1444.4553;1444.4553;0;1365
0.468;1444.4553;1650.806058;0;1238.104543;1650.806058;1650.806058;1650.806058;0;1365
0.47;1650.806058;1444.4553;0;1857.156815;1444.4553;1444.4553;1444.4553;0;1382
0.472;1650.806058;1857.156815;0;1857.156815;1444.4553;1444.4553;1444.4553;0;1381
0.474;1444.4553;2269.858329;0;1444.4553;1650.806058;1650.806058;1650.806058;0;1381
0.476;1650.806058;1650.806058;0;1444.4553;1444.4553;1444.4553;1444.4553;0;1381
0.478;1650.806058;825.4030288;0;1238.104543;1444.4553;1444.4553;1444.4553;0;1380
0.48;1444.4553;1238.104543;0;1238.104543;1444.4553;1444.4553;1444.4553;0;1389
0.482;1650.806058;1444.4553;0;1444.4553;1444.4553;1444.4553;1444.4553;0;1388
0.484;1650.806058;1238.104543;0;1444.4553;1444.4553;1444.4553;1444.4553;0;1388
0.486;1650.806058;1857.156815;0;1650.806058;1444.4553;1444.4553;1444.4553;0;1387
0.488;1650.806058;1857.156815;0;1650.806058;1444.4553;1444.4553;1444.4553;0;1387
0.49;1650.806058;1238.104543;0;1857.156815;1444.4553;1444.4553;1444.4553;0;1386
0.492;1650.806058;1444.4553;0;1650.806058;1444.4553;1444.4553;1444.4553;0;1386
0.494;1650.806058;2269.858329;0;1444.4553;1444.4553;1444.4553;1444.4553;0;1392
0.496;1650.806058;1238.104543;0;1444.4553;1650.806058;1650.806058;1650.806058;0;1416
0.498;1650.806058;1031.753786;0;1650.806058;1444.4553;1444.4553;1444.4553;0;1415
0.5;1650.806058;1238.104543;0;1650.806058;1444.4553;1444.4553;1444.4553;0;1414
0.502;1650.806058;1444.4553;0;1444.4553;1444.4553;1444.4553;1444.4553;0;1414
0.504;1444.4553;1650.806058;0;1238.104543;1650.806058;1650.806058;1650.806058;0;1413
0.506;1444.4553;1650.806058;0;1031.753786;1650.806058;1650.806058;1650.806058;0;1412
0.508;1650.806058;1650.806058;0;1238.104543;1650.806058;1650.806058;1650.806058;0;1412
0.51;1650.806058;1857.156815;0;1444.4553;1650.806058;1650.806058;1650.806058;0;1420
0.512;1650.806058;1857.156815;0;1444.4553;1650.806058;1650.806058;1650.806058;0;1419
0.514;1857.156815;2063.507572;0;1650.806058;1444.4553;1444.4553;1444.4553;0;1419
0.516;1650.806058;2269.858329;0;1650.806058;1444.4553;1444.4553;1444.4553;0;1419
0.518;1650.806058;1238.104543;0;1650.806058;1444.4553;1444.4553;1444.4553;0;1418
0.52;1650.806058;1031.753786;0;1650.806058;1444.4553;1444.4553;1444.4553;0;1419
0.522;1650.806058;1857.156815;0;1444.4553;1444.4553;1444.4553;1444.4553;0;1451
0.524;1650.806058;2063.507572;0;1444.4553;1650.806058;1650.806058;1650.806058;0;1451
0.526;1650.806058;1857.156815;0;1444.4553;1444.4553;1444.4553;1444.4553;0;1459
0.528;1650.806058;1650.806058;0;1444.4553;1650.806058;1650.806058;1650.806058;0;1458
0.53;1444.4553;1857.156815;0;1444.4553;1444.4553;1444.4553;1444.4553;0;1457
0.532;1650.806058;1444.4553;0;1444.4553;1650.806058;1650.806058;1650.806058;0;1456
0.534;1444.4553;619.0522716;0;1650.806058;1650.806058;1650.806058;1650.806058;0;1456
0.536;1444.4553;1650.806058;0;1238.104543;1650.806058;1650.806058;1650.806058;0;1455
0.538;1650.806058;1650.806058;0;1444.4553;1650.806058;1650.806058;1650.806058;0;1454
0.54;1444.4553;1031.753786;0;1444.4553;1650.806058;1650.806058;1650.806058;0;1453
0.542;1650.806058;1238.104543;0;1444.4553;1650.806058;1650.806058;1650.806058;0;1461
0.544;1650.806058;1650.806058;0;1650.806058;1650.806058;1650.806058;1650.806058;0;1460
0.546;1650.806058;1650.806058;0;1650.806058;1650.806058;1650.806058;1650.806058;0;1459
0.548;1650.806058;1031.753786;0;1650.806058;1650.806058;1650.806058;1650.806058;0;1456
0.55;1650.806058;1650.806058;0;1650.806058;1650.806058;1650.806058;1650.806058;0;1455
0.552;1444.4553;1238.104543;0;1444.4553;1650.806058;1650.806058;1650.806058;0;1455
0.554;1444.4553;619.0522716;0;1444.4553;1444.4553;1444.4553;1444.4553;0;1455
0.556;1444.4553;825.4030288;0;1238.104543;1650.806058;1650.806058;1650.806058;0;1455
0.558;1444.4553;1650.806058;0;1238.104543;1650.806058;1650.806058;1650.806058;0;1462
0.56;1444.4553;1857.156815;0;1444.4553;1650.806058;1650.806058;1650.806058;0;1461
0.562;1444.4553;1650.806058;0;1444.4553;1650.806058;1650.806058;1650.806058;0;1460
0.564;1650.806058;1857.156815;0;1444.4553;1650.806058;1650.806058;1650.806058;0;1460
0.566;1650.806058;2269.858329;0;1650.806058;1650.806058;1650.806058;1650.806058;0;1459
0.568;1650.806058;1857.156815;0;1650.806058;1444.4553;1444.4553;1444.4553;0;1458
0.57;1650.806058;1650.806058;0;1650.806058;1650.806058;1650.806058;1650.806058;0;1458
0.572;1444.4553;412.7015144;0;1444.4553;1650.806058;1650.806058;1650.806058;0;1458
0.574;1650.806058;825.4030288;0;1444.4553;1650.806058;1650.806058;1650.806058;0;1459
0.576;1650.806058;1444.4553;0;1650.806058;1650.806058;1650.806058;1650.806058;0;1465
0.578;1650.806058;1444.4553;0;2063.507572;1650.806058;1650.806058;1650.806058;0;1462
0.58;1650.806058;1857.156815;0;1444.4553;1650.806058;1650.806058;1650.806058;0;1462
0.582;1650.806058;1857.156815;0;1444.4553;1650.806058;1650.806058;1650.806058;0;1461
0.584;1650.806058;1857.156815;0;1444.4553;1650.806058;1650.806058;1650.806058;0;1460
0.586;1650.806058;1444.4553;0;1650.806058;1650.806058;1650.806058;1650.806058;0;1460
0.588;1650.806058;1031.753786;0;1444.4553;1650.806058;1650.806058;1650.806058;0;1459
0.59;1444.4553;1444.4553;0;1238.104543;1650.806058;1650.806058;1650.806058;0;1459
0.592;1650.806058;2269.858329;0;1444.4553;1650.806058;1650.806058;1650.806058;0;1458
0.594;1650.806058;1650.806058;0;1444.4553;1650.806058;1650.806058;1650.806058;0;1457
0.596;1444.4553;825.4030288;0;1650.806058;1650.806058;1650.806058;1650.806058;0;1456
0.598;1444.4553;1031.753786;0;1650.806058;1444.4553;1444.4553;1444.4553;0;1454
0.6;1650.806058;1444.4553;0;1650.806058;1650.806058;1650.806058;1650.806058;0;1448
0.602;1650.806058;1650.806058;0;1650.806058;1650.806058;1650.806058;1650.806058;0;1447
0.604;1650.806058;2063.507572;0;1650.806058;1650.806058;1650.806058;1650.806058;0;1446
0.606;1650.806058;2269.858329;0;1444.4553;1650.806058;1650.806058;1650.806058;0;1445
0.608;1444.4553;1444.4553;0;1238.104543;1650.806058;1650.806058;1650.806058;0;1443
0.61;1650.806058;1031.753786;0;1238.104543;1650.806058;1650.806058;1650.806058;0;1442
0.612;1650.806058;1857.156815;0;1238.104543;1650.806058;1650.806058;1650.806058;0;1442
0.614;1444.4553;2476.209086;0;1238.104543;1650.806058;1650.806058;1650.806058;0;1442
0.616;1444.4553;1857.156815;0;1444.4553;1650.806058;1650.806058;1650.806058;0;1441
0.618;1444.4553;825.4030288;0;1857.156815;1650.806058;1650.806058;1650.806058;0;1446
0.62;1444.4553;1031.753786;0;1857.156815;1444.4553;1444.4553;1444.4553;0;1445
0.622;1650.806058;1031.753786;0;1650.806058;1444.4553;1444.4553;1444.4553;0;1443
0.624;1650.806058;1238.104543;0;1650.806058;1444.4553;1444.4553;1444.4553;0;1441
0.626;1650.806058;1444.4553;0;1650.806058;1444.4553;1444.4553;1444.4553;0;1428
0.628;1650.806058;1650.806058;0;1857.156815;1650.806058;1650.806058;1650.806058;0;1427
0.63;1650.806058;1650.806058;0;1650.806058;1444.4553;1444.4553;1444.4553;0;1426
0.632;1650.806058;1650.806058;0;1444.4553;1650.806058;1650.806058;1650.806058;0;1425
0.634;1650.806058;1857.156815;0;1444.4553;1444.4553;1444.4553;1444.4553;0;1423
0.636;1444.4553;1650.806058;0;1444.4553;1444.4553;1444.4553;1444.4553;0;1422
0.638;1444.4553;1238.104543;0;1444.4553;1444.4553;1444.4553;1444.4553;0;1421
0.64;1444.4553;1444.4553;0;1444.4553;1444.4553;1444.4553;1444.4553;0;1420
0.642;1444.4553;1650.806058;0;1650.806058;1444.4553;1444.4553;1444.4553;0;1419
0.644;1444.4553;2269.858329;0;1444.4553;1444.4553;1444.4553;1444.4553;0;1419
0.646;1650.806058;2269.858329;0;1444.4553;1444.4553;1444.4553;1444.4553;0;1418
0.648;1444.4553;1031.753786;0;1650.806058;1444.4553;1444.4553;1444.4553;0;1423
0.65;1650.806058;825.4030288;0;2269.858329;1444.4553;1444.4553;1444.4553;0;1421
0.652;1444.4553;1031.753786;0;1238.104543;1444.4553;1444.4553;1444.4553;0;1405
0.654;1444.4553;1031.753786;0;1444.4553;1444.4553;1444.4553;1444.4553;0;1404
0.656;1444.4553;1444.4553;0;1650.806058;1444.4553;1444.4553;1444.4553;0;1411
0.658;1650.806058;1444.4553;0;1650.806058;1444.4553;1444.4553;1444.4553;0;1411
0.66;1650.806058;1238.104543;0;2063.507572;1444.4553;1444.4553;1444.4553;0;1415
0.662;1650.806058;1650.806058;0;2063.507572;1444.4553;1444.4553;1444.4553;0;1419
0.664;1650.806058;2063.507572;0;1650.806058;1444.4553;1444.4553;1444.4553;0;1416
0.666;1650.806058;2888.910601;0;1444.4553;1650.806058;1650.806058;1650.806058;0;1415
0.668;1650.806058;2888.910601;0;1238.104543;1650.806058;1650.806058;1650.806058;0;1413
0.67;1444.4553;619.0522716;0;1238.104543;1444.4553;1444.4553;1444.4553;0;1412
0.672;1444.4553;0;0;1238.104543;1444.4553;1444.4553;1444.4553;0;1416
0.674;1444.4553;619.0522716;0;2063.507572;1444.4553;1444.4553;1444.4553;0;1420
0.676;1650.806058;1444.4553;0;2063.507572;1444.4553;1444.4553;1444.4553;0;1423
0.678;1444.4553;2476.209086;0;1650.806058;1444.4553;1444.4553;1444.4553;0;1403
0.68;1444.4553;2888.910601;0;1650.806058;1444.4553;1444.4553;1444.4553;0;1402
0.682;1444.4553;1857.156815;0;1650.806058;1650.806058;1650.806058;1650.806058;0;1401
0.684;1444.4553;412.7015144;0;1650.806058;1444.4553;1444.4553;1444.4553;0;1400
0.686;1650.806058;1031.753786;0;1444.4553;1444.4553;1444.4553;1444.4553;0;1399
0.688;1650.806058;1857.156815;0;1444.4553;1444.4553;1444.4553;1444.4553;0;1398
0.69;1650.806058;1857.156815;0;1650.806058;1650.806058;1650.806058;1650.806058;0;1397
0.692;1857.156815;2063.507572;0;1444.4553;1650.806058;1650.806058;1650.806058;0;1396
0.694;1650.806058;1238.104543;0;1444.4553;1444.4553;1444.4553;1444.4553;0;1396
0.696;1238.104543;206.3507572;0;1444.4553;1444.4553;1444.4553;1444.4553;0;1395
0.698;1238.104543;619.0522716;0;1650.806058;1444.4553;1444.4553;1444.4553;0;1395
0.7;1444.4553;1238.104543;0;1650.806058;1444.4553;1444.4553;1444.4553;0;1395
0.702;1444.4553;1444.4553;0;1444.4553;1444.4553;1444.4553;1444.4553;0;1395
0.704;1650.806058;412.7015144;0;1650.806058;1444.4553;1444.4553;1444.4553;0;1395
0.706;1444.4553;412.7015144;0;2063.507572;1444.4553;1444.4553;1444.4553;0;1394
0.708;1650.806058;825.4030288;0;1650.806058;1444.4553;1444.4553;1444.4553;0;1394
0.71;1650.806058;1444.4553;0;1444.4553;1444.4553;1444.4553;1444.4553;0;1394
0.712;1650.806058;1444.4553;0;1444.4553;1444.4553;1444.4553;1444.4553;0;1393
0.714;1650.806058;1444.4553;0;1444.4553;1444.4553;1444.4553;1444.4553;0;1392
0.716;1650.806058;1650.806058;0;1444.4553;1444.4553;1444.4553;1444.4553;0;1391
0.718;1650.806058;1650.806058;0;1650.806058;1444.4553;1444.4553;1444.4553;0;1391
0.72;1650.806058;1650.806058;0;1650.806058;1444.4553;1444.4553;1444.4553;0;1391
0.722;1650.806058;1650.806058;0;1650.806058;1444.4553;1444.4553;1444.4553;0;1390
0.724;1650.806058;1650.806058;0;1650.806058;1444.4553;1444.4553;1444.4553;0;1390
0.726;1650.806058;1650.806058;0;1650.806058;1444.4553;1444.4553;1444.4553;0;1390
0.728;1444.4553;1650.806058;0;1444.4553;1650.806058;1650.806058;1650.806058;0;1390
0.73;1444.4553;1238.104543;0;1238.104543;1444.4553;1444.4553;1444.4553;0;1386
0.732;1650.806058;1444.4553;0;1238.104543;1444.4553;1444.4553;1444.4553;0;1385
0.734;1650.806058;1444.4553;0;1444.4553;1444.4553;1444.4553;1444.4553;0;1385
0.736;1650.806058;1857.156815;0;2063.507572;1444.4553;1444.4553;1444.4553;0;1384
0.738;1650.806058;2476.209086;0;1444.4553;1650.806058;1650.806058;1650.806058;0;1380
0.74;1650.806058;2682.559844;0;1444.4553;1650.806058;1650.806058;1650.806058;0;1379
0.742;1650.806058;1238.104543;0;1444.4553;1650.806058;1650.806058;1650.806058;0;1378
0.744;1444.4553;619.0522716;0;1650.806058;1444.4553;1444.4553;1444.4553;0;1378
0.746;1650.806058;412.7015144;0;1650.806058;1444.4553;1444.4553;1444.4553;0;1378
0.748;1444.4553;825.4030288;0;1444.4553;1650.806058;1650.806058;1650.806058;0;1377
0.75;1444.4553;1444.4553;0;1444.4553;1650.806058;1650.806058;1650.806058;0;1377
0.752;1444.4553;1650.806058;0;1238.104543;1650.806058;1650.806058;1650.806058;0;1377
0.754;1650.806058;2063.507572;0;1238.104543;1650.806058;1650.806058;1650.806058;0;1376
0.756;1650.806058;1444.4553;0;1444.4553;1444.4553;1444.4553;1444.4553;0;1375
0.758;1650.806058;1444.4553;0;1444.4553;1650.806058;1650.806058;1650.806058;0;1374
0.76;1650.806058;1650.806058;0;1444.4553;1650.806058;1650.806058;1650.806058;0;1373
0.762;1444.4553;1650.806058;0;1444.4553;1650.806058;1650.806058;1650.806058;0;1372
0.764;1444.4553;1650.806058;0;1444.4553;1650.806058;1650.806058;1650.806058;0;1371
0.766;1650.806058;1650.806058;0;1444.4553;1650.806058;1650.806058;1650.806058;0;1370
0.768;1650.806058;1857.156815;0;1444.4553;1650.806058;1650.806058;1650.806058;0;1369
0.77;1650.806058;2063.507572;0;1650.806058;1650.806058;1650.806058;1650.806058;0;1368
0.772;1650.806058;1650.806058;0;1650.806058;1444.4553;1444.4553;1444.4553;0;1368
0.774;1650.806058;1031.753786;0;1650.806058;1444.4553;1444.4553;1444.4553;0;1367
0.776;1650.806058;1238.104543;0;1444.4553;1444.4553;1444.4553;1444.4553;0;1367
0.778;1650.806058;1444.4553;0;1444.4553;1444.4553;1444.4553;1444.4553;0;1366
0.78;1444.4553;1444.4553;0;1444.4553;1444.4553;1444.4553;1444.4553;0;1366
0.782;1650.806058;1857.156815;0;1444.4553;1444.4553;1444.4553;1444.4553;0;1362
0.784;1650.806058;2063.507572;0;1444.4553;1444.4553;1444.4553;1444.4553;0;1362
0.786;1650.806058;2063.507572;0;1238.104543;1444.4553;1444.4553;1444.4553;0;1362
0.788;1650.806058;1650.806058;0;1444.4553;1444.4553;1444.4553;1444.4553;0;1362
0.79;1650.806058;1031.753786;0;1444.4553;1444.4553;1444.4553;1444.4553;0;1362
0.792;1650.806058;1238.104543;0;1650.806058;1444.4553;1444.4553;1444.4553;0;1361
0.794;1650.806058;1444.4553;0;1857.156815;1444.4553;1444.4553;1444.4553;0;1361
0.796;1650.806058;1650.806058;0;1650.806058;1444.4553;1444.4553;1444.4553;0;1361
0.798;1650.806058;1650.806058;0;1444.4553;1444.4553;1444.4553;1444.4553;0;1361
0.8;1444.4553;1650.806058;0;1444.4553;1444.4553;1444.4553;1444.4553;0;1361
0.802;1444.4553;1650.806058;0;1238.104543;1444.4553;1444.4553;1444.4553;0;1359
0.804;1444.4553;1650.806058;0;1238.104543;1444.4553;1444.4553;1444.4553;0;1359
0.806;1650.806058;1650.806058;0;1444.4553;1444.4553;1444.4553;1444.4553;0;1359
0.808;1650.806058;1650.806058;0;1857.156815;1444.4553;1444.4553;1444.4553;0;1361
0.81;1444.4553;1650.806058;0;1444.4553;1444.4553;1444.4553;1444.4553;0;1359
0.812;1444.4553;1650.806058;0;1031.753786;1444.4553;1444.4553;1444.4553;0;1358
0.814;1444.4553;1650.806058;0;1031.753786;1444.4553;1444.4553;1444.4553;0;1357
0.816;1444.4553;1650.806058;0;1031.753786;1444.4553;1444.4553;1444.4553;0;1356
0.818;1650.806058;1650.806058;0;1444.4553;1444.4553;1444.4553;1444.4553;0;1355
0.82;1650.806058;1650.806058;0;1650.806058;1444.4553;1444.4553;1444.4553;0;1354
0.822;1650.806058;1650.806058;0;1650.806058;1444.4553;1444.4553;1444.4553;0;1354
0.824;1650.806058;1650.806058;0;1650.806058;1444.4553;1444.4553;1444.4553;0;1353
0.826;1650.806058;1650.806058;0;1650.806058;1444.4553;1444.4553;1444.4553;0;1352
0.828;1650.806058;1650.806058;0;1650.806058;1444.4553;1444.4553;1444.4553;0;1352
0.83;1444.4553;1650.806058;0;1444.4553;1444.4553;1444.4553;1444.4553;0;1351
0.832;1444.4553;1650.806058;0;1238.104543;1444.4553;1444.4553;1444.4553;0;1351
0.834;1650.806058;1444.4553;0;2063.507572;1444.4553;1444.4553;1444.4553;0;1354
0.836;1650.806058;1650.806058;0;1444.4553;1444.4553;1444.4553;1444.4553;0;1353
0.838;1650.806058;1650.806058;0;1444.4553;1444.4553;1444.4553;1444.4553;0;1351
0.84;1650.806058;1650.806058;0;1444.4553;1444.4553;1444.4553;1444.4553;0;1350
0.842;1650.806058;1650.806058;0;1444.4553;1444.4553;1444.4553;1444.4553;0;1349
0.844;1650.806058;1650.806058;0;1650.806058;1444.4553;1444.4553;1444.4553;0;1349
0.846;1650.806058;1650.806058;0;1444.4553;1444.4553;1444.4553;1444.4553;0;1348
0.848;1650.806058;1650.806058;0;1238.104543;1444.4553;1444.4553;1444.4553;0;1347
0.85;1650.806058;1650.806058;0;1238.104543;1444.4553;1444.4553;1444.4553;0;1352
0.852;1650.806058;1857.156815;0;1444.4553;1444.4553;1444.4553;1444.4553;0;1351
0.854;1650.806058;1650.806058;0;1650.806058;1444.4553;1444.4553;1444.4553;0;1350
0.856;1650.806058;1650.806058;0;1857.156815;1444.4553;1444.4553;1444.4553;0;1349
0.858;1650.806058;1650.806058;0;1650.806058;1444.4553;1444.4553;1444.4553;0;1348
0.86;1650.806058;1238.104543;0;1031.753786;1444.4553;1444.4553;1444.4553;0;1351
0.862;1650.806058;1031.753786;0;1238.104543;1444.4553;1444.4553;1444.4553;0;1350
0.864;1650.806058;1444.4553;0;1650.806058;1444.4553;1444.4553;1444.4553;0;1349
0.866;1650.806058;1444.4553;0;1650.806058;1444.4553;1444.4553;1444.4553;0;1348
0.868;1650.806058;1650.806058;0;1650.806058;1444.4553;1444.4553;1444.4553;0;1347
0.87;1650.806058;1857.156815;0;1650.806058;1444.4553;1444.4553;1444.4553;0;1351
0.872;1650.806058;2063.507572;0;1650.806058;1444.4553;1444.4553;1444.4553;0;1350
0.874;1444.4553;1650.806058;0;1650.806058;1444.4553;1444.4553;1444.4553;0;1348
0.876;1444.4553;825.4030288;0;1650.806058;1444.4553;1444.4553;1444.4553;0;1347
0.878;1444.4553;1650.806058;0;1444.4553;1444.4553;1444.4553;1444.4553;0;1346
0.88;1444.4553;2269.858329;0;1238.104543;1444.4553;1444.4553;1444.4553;0;1344
0.882;1444.4553;1857.156815;0;1238.104543;1444.4553;1444.4553;1444.4553;0;1349
0.884;1650.806058;1444.4553;0;1444.4553;1444.4553;1444.4553;1444.4553;0;1348
0.886;1444.4553;1031.753786;0;1857.156815;1444.4553;1444.4553;1444.4553;0;1346
0.888;1650.806058;1238.104543;0;1650.806058;1444.4553;1444.4553;1444.4553;0;1345
0.89;1650.806058;1444.4553;0;1444.4553;1444.4553;1444.4553;1444.4553;0;1343
0.892;1650.806058;1444.4553;0;1444.4553;1444.4553;1444.4553;1444.4553;0;1342
0.894;1650.806058;1650.806058;0;1444.4553;1444.4553;1444.4553;1444.4553;0;1341
0.896;1650.806058;1650.806058;0;1857.156815;1444.4553;1444.4553;1444.4553;0;1340
0.898;1650.806058;1650.806058;0;1650.806058;1650.806058;1650.806058;1650.806058;0;1340
0.9;1650.806058;1650.806058;0;1238.104543;1444.4553;1444.4553;1444.4553;0;1339
0.902;1650.806058;1650.806058;0;1444.4553;1444.4553;1444.4553;1444.4553;0;1346
0.904;1650.806058;1650.806058;0;1444.4553;1444.4553;1444.4553;1444.4553;0;1344
0.906;1650.806058;1444.4553;0;1650.806058;1444.4553;1444.4553;1444.4553;0;1343
0.908;1650.806058;1238.104543;0;1650.806058;1444.4553;1444.4553;1444.4553;0;1343
0.91;1650.806058;1444.4553;0;1444.4553;1444.4553;1444.4553;1444.4553;0;1342
0.912;1444.4553;1444.4553;0;1444.4553;1444.4553;1444.4553;1444.4553;0;1340
0.914;1650.806058;1444.4553;0;1444.4553;1444.4553;1444.4553;1444.4553;0;1345
0.916;1444.4553;1444.4553;0;1857.156815;1444.4553;1444.4553;1444.4553;0;1343
0.918;1650.806058;1444.4553;0;1650.806058;1444.4553;1444.4553;1444.4553;0;1341
0.92;1650.806058;1444.4553;0;1650.806058;1444.4553;1444.4553;1444.4553;0;1340
0.922;1650.806058;1444.4553;0;1650.806058;1444.4553;1444.4553;1444.4553;0;1339
0.924;1650.806058;1444.4553;0;1650.806058;1444.4553;1444.4553;1444.4553;0;1338
0.926;1650.806058;1444.4553;0;1444.4553;1444.4553;1444.4553;1444.4553;0;1337
0.928;1650.806058;1444.4553;0;1444.4553;1444.4553;1444.4553;1444.4553;0;1343
0.93;1650.806058;1444.4553;0;1444.4553;1444.4553;1444.4553;1444.4553;0;1342
0.932;1650.806058;1444.4553;0;1650.806058;1444.4553;1444.4553;1444.4553;0;1340
0.934;1650.806058;1444.4553;0;1650.806058;1444.4553;1444.4553;1444.4553;0;1339
0.936;1444.4553;1444.4553;0;1650.806058;1444.4553;1444.4553;1444.4553;0;1339
0.938;1444.4553;1444.4553;0;1238.104543;1444.4553;1444.4553;1444.4553;0;1337
0.94;1444.4553;1238.104543;0;1238.104543;1444.4553;1444.4553;1444.4553;0;1343
0.942;1444.4553;1238.104543;0;1444.4553;1444.4553;1444.4553;1444.4553;0;1347
0.944;1444.4553;1444.4553;0;1444.4553;1444.4553;1444.4553;1444.4553;0;1351
0.946;1444.4553;1650.806058;0;1444.4553;1444.4553;1444.4553;1444.4553;0;1354
0.948;1444.4553;1857.156815;0;1650.806058;1444.4553;1444.4553;1444.4553;0;1356
0.95;1444.4553;1650.806058;0;1650.806058;1444.4553;1444.4553;1444.4553;0;1358
0.952;1444.4553;1444.4553;0;1444.4553;1444.4553;1444.4553;1444.4553;0;1360
0.954;1444.4553;1444.4553;0;1444.4553;1444.4553;1444.4553;1444.4553;0;1361
0.956;1444.4553;1031.753786;0;1650.806058;1444.4553;1444.4553;1444.4553;0;1362
0.958;1444.4553;1238.104543;0;1650.806058;1444.4553;1444.4553;1444.4553;0;1363
0.96;1650.806058;1444.4553;0;1650.806058;1444.4553;1444.4553;1444.4553;0;1364
0.962;1650.806058;1444.4553;0;1650.806058;1444.4553;1444.4553;1444.4553;0;1365
0.964;1444.4553;1444.4553;0;1444.4553;1444.4553;1444.4553;1444.4553;0;1360
0.966;1650.806058;1444.4553;0;1238.104543;1444.4553;1444.4553;1444.4553;0;1362
0.968;1444.4553;1444.4553;0;1444.4553;1444.4553;1444.4553;1444.4553;0;1363
0.97;1444.4553;1650.806058;0;1444.4553;1444.4553;1444.4553;1444.4553;0;1364
0.972;1444.4553;1444.4553;0;1650.806058;1444.4553;1444.4553;1444.4553;0;1364
0.974;1444.4553;1444.4553;0;1444.4553;1444.4553;1444.4553;1444.4553;0;1364
0.976;1444.4553;1444.4553;0;1444.4553;1444.4553;1444.4553;1444.4553;0;1364
0.978;1444.4553;1444.4553;0;1650.806058;1444.4553;1444.4553;1444.4553;0;1365
0.98;1444.4553;1444.4553;0;1650.806058;1444.4553;1444.4553;1444.4553;0;1365
0.982;1650.806058;1444.4553;0;1444.4553;1444.4553;1444.4553;1444.4553;0;1365
0.984;1444.4553;1444.4553;0;1238.104543;1444.4553;1444.4553;1444.4553;0;1366
0.986;1444.4553;1444.4553;0;1238.104543;1444.4553;1444.4553;1444.4553;0;1366
0.988;1444.4553;1650.806058;0;1444.4553;1444.4553;1444.4553;1444.4553;0;1366
0.99;1650.806058;1444.4553;0;1650.806058;1444.4553;1444.4553;1444.4553;0;1360
0.992;1650.806058;1444.4553;0;1238.104543;1444.4553;1444.4553;1444.4553;0;1361
0.994;1650.806058;1650.806058;0;1650.806058;1444.4553;1444.4553;1444.4553;0;1362
0.996;1650.806058;1444.4553;0;1650.806058;1444.4553;1444.4553;1444.4553;0;1362
0.998;1650.806058;1444.4553;0;1650.806058;1444.4553;1444.4553;1444.4553;0;1362
1;1444.4553;1444.4553;0;1650.806058;1444.4553;1444.4553;1444.4553;0;1362
1.002;1650.806058;1444.4553;0;1444.4553;1444.4553;1444.4553;1444.4553;0;1363
1.004;1650.806058;1444.4553;0;1444.4553;1444.4553;1444.4553;1444.4553;0;1363
1.006;1650.806058;1650.806058;0;1444.4553;1444.4553;1444.4553;1444.4553;0;1363
1.008;1650.806058;1650.806058;0;1444.4553;1650.806058;1650.806058;1650.806058;0;1363
1.01;1650.806058;1650.806058;0;1444.4553;1444.4553;1444.4553;1444.4553;0;1363
1.012;1650.806058;1650.806058;0;1444.4553;1650.806058;1650.806058;1650.806058;0;1363
1.014;1650.806058;1650.806058;0;1650.806058;1444.4553;1444.4553;1444.4553;0;1363
1.016;1650.806058;1650.806058;0;1444.4553;1650.806058;1650.806058;1650.806058;0;1357
1.018;1650.806058;1650.806058;0;1031.753786;1650.806058;1650.806058;1650.806058;0;1358
1.02;1650.806058;1650.806058;0;1444.4553;1650.806058;1650.806058;1650.806058;0;1358
1.022;1650.806058;1650.806058;0;1444.4553;1650.806058;1650.806058;1650.806058;0;1359
1.024;1650.806058;1650.806058;0;1650.806058;1650.806058;1650.806058;1650.806058;0;1360
1.026;1650.806058;1650.806058;0;1650.806058;1650.806058;1650.806058;1650.806058;0;1360
1.028;1650.806058;1650.806058;0;1650.806058;1650.806058;1650.806058;1650.806058;0;1360
1.03;1650.806058;1650.806058;0;1650.806058;1650.806058;1650.806058;1650.806058;0;1360
1.032;1650.806058;1650.806058;0;1444.4553;1650.806058;1650.806058;1650.806058;0;1361
1.034;1650.806058;1650.806058;0;1444.4553;1650.806058;1650.806058;1650.806058;0;1361
1.036;1650.806058;1650.806058;0;1444.4553;1650.806058;1650.806058;1650.806058;0;1361
1.038;1650.806058;1650.806058;0;1650.806058;1650.806058;1650.806058;1650.806058;0;1361
1.04;1650.806058;1650.806058;0;1444.4553;1650.806058;1650.806058;1650.806058;0;1361
1.042;1650.806058;1857.156815;0;1650.806058;1650.806058;1650.806058;1650.806058;0;1355
1.044;1650.806058;1650.806058;0;825.4030288;1650.806058;1650.806058;1650.806058;0;1357
1.046;1650.806058;1650.806058;0;1857.156815;1650.806058;1650.806058;1650.806058;0;1357
1.048;1650.806058;1650.806058;0;1857.156815;1650.806058;1650.806058;1650.806058;0;1358
1.05;1650.806058;1650.806058;0;1650.806058;1650.806058;1650.806058;1650.806058;0;1359
1.052;1650.806058;1444.4553;0;1650.806058;1650.806058;1650.806058;1650.806058;0;1359
1.054;1650.806058;1650.806058;0;1650.806058;1650.806058;1650.806058;1650.806058;0;1360
1.056;1650.806058;1650.806058;0;1444.4553;1650.806058;1650.806058;1650.806058;0;1360
1.058;1650.806058;1650.806058;0;1444.4553;1650.806058;1650.806058;1650.806058;0;1360
1.06;1650.806058;1650.806058;0;1444.4553;1650.806058;1650.806058;1650.806058;0;1360
1.062;1650.806058;1650.806058;0;1444.4553;1650.806058;1650.806058;1650.806058;0;1360
1.064;1650.806058;1650.806058;0;1444.4553;1650.806058;1650.806058;1650.806058;0;1360
1.066;1650.806058;1650.806058;0;1650.806058;1650.806058;1650.806058;1650.806058;0;1360
1.068;1650.806058;1857.156815;0;1444.4553;1650.806058;1650.806058;1650.806058;0;1355
1.07;1444.4553;1857.156815;0;619.0522716;1650.806058;1650.806058;1650.806058;0;1356
1.072;1650.806058;1857.156815;0;1650.806058;1650.806058;1650.806058;1650.806058;0;1357
1.074;1650.806058;1650.806058;0;1650.806058;1650.806058;1650.806058;1650.806058;0;1357
1.076;1650.806058;1650.806058;0;1650.806058;1650.806058;1650.806058;1650.806058;0;1357
1.078;1650.806058;1650.806058;0;1650.806058;1650.806058;1650.806058;1650.806058;0;1357
1.08;1650.806058;1650.806058;0;1857.156815;1650.806058;1650.806058;1650.806058;0;1358
1.082;1650.806058;1650.806058;0;1857.156815;1650.806058;1650.806058;1650.806058;0;1358
1.084;1650.806058;1650.806058;0;1650.806058;1650.806058;1650.806058;1650.806058;0;1358
1.086;1650.806058;1650.806058;0;1444.4553;1650.806058;1650.806058;1650.806058;0;1358
1.088;1650.806058;1650.806058;0;1444.4553;1650.806058;1650.806058;1650.806058;0;1359
1.09;1650.806058;1650.806058;0;1444.4553;1650.806058;1650.806058;1650.806058;0;1359
1.092;1650.806058;1650.806058;0;1444.4553;1650.806058;1650.806058;1650.806058;0;1359
1.094;1650.806058;1650.806058;0;1650.806058;1650.806058;1650.806058;1650.806058;0;1353
1.096;1444.4553;1650.806058;0;825.4030288;1650.806058;1650.806058;1650.806058;0;1355
1.098;1650.806058;1650.806058;0;2063.507572;1650.806058;1650.806058;1650.806058;0;1355
1.1;1650.806058;1650.806058;0;1857.156815;1650.806058;1650.806058;1650.806058;0;1356
1.102;1650.806058;1650.806058;0;1857.156815;1650.806058;1650.806058;1650.806058;0;1356
1.104;1650.806058;1650.806058;0;1650.806058;1650.806058;1650.806058;1650.806058;0;1357
1.106;1650.806058;1650.806058;0;1444.4553;1650.806058;1650.806058;1650.806058;0;1357
1.108;1650.806058;1650.806058;0;1650.806058;1650.806058;1650.806058;1650.806058;0;1357
1.11;1650.806058;1650.806058;0;1650.806058;1650.806058;1650.806058;1650.806058;0;1358
1.112;1650.806058;1650.806058;0;1650.806058;1650.806058;1650.806058;1650.806058;0;1358
1.114;1650.806058;1650.806058;0;1650.806058;1444.4553;1444.4553;1444.4553;0;1358
1.116;1650.806058;1650.806058;0;1650.806058;1444.4553;1444.4553;1444.4553;0;1358
1.118;1650.806058;1650.806058;0;1444.4553;1444.4553;1444.4553;1444.4553;0;1358
1.12;1650.806058;1650.806058;0;1238.104543;1444.4553;1444.4553;1444.4553;0;1354
1.122;1238.104543;1857.156815;0;412.7015144;1444.4553;1444.4553;1444.4553;0;1355
1.124;1650.806058;1857.156815;0;1857.156815;1444.4553;1444.4553;1444.4553;0;1356
1.126;1650.806058;1650.806058;0;1857.156815;1444.4553;1444.4553;1444.4553;0;1356
1.128;1650.806058;1444.4553;0;1857.156815;1444.4553;1444.4553;1444.4553;0;1357
1.13;1650.806058;1444.4553;0;1857.156815;1444.4553;1444.4553;1444.4553;0;1357
1.132;1650.806058;1650.806058;0;1857.156815;1444.4553;1444.4553;1444.4553;0;1357
1.134;1650.806058;1650.806058;0;1650.806058;1444.4553;1444.4553;1444.4553;0;1357
1.136;1650.806058;1650.806058;0;1650.806058;1444.4553;1444.4553;1444.4553;0;1358
1.138;1650.806058;1650.806058;0;1650.806058;1444.4553;1444.4553;1444.4553;0;1358
1.14;1650.806058;1650.806058;0;1650.806058;1444.4553;1444.4553;1444.4553;0;1358
1.142;1650.806058;1650.806058;0;1857.156815;1650.806058;1650.806058;1650.806058;0;1358
1.144;1650.806058;1650.806058;0;1857.156815;1650.806058;1650.806058;1650.806058;0;1358
1.146;1650.806058;1650.806058;0;1650.806058;1444.4553;1444.4553;1444.4553;0;1353
1.148;1444.4553;1444.4553;0;619.0522716;1444.4553;1444.4553;1444.4553;0;1354
1.15;1650.806058;1444.4553;0;1857.156815;1444.4553;1444.4553;1444.4553;0;1355
1.152;1650.806058;1444.4553;0;1857.156815;1444.4553;1444.4553;1444.4553;0;1356
1.154;1650.806058;1650.806058;0;1650.806058;1444.4553;1444.4553;1444.4553;0;1356
1.156;1650.806058;1650.806058;0;1650.806058;1444.4553;1444.4553;1444.4553;0;1357
1.158;1650.806058;1650.806058;0;1857.156815;1444.4553;1444.4553;1444.4553;0;1357
1.16;1650.806058;1650.806058;0;1857.156815;1444.4553;1444.4553;1444.4553;0;1357
1.162;1650.806058;1650.806058;0;1857.156815;1444.4553;1444.4553;1444.4553;0;1358
1.164;1650.806058;1444.4553;0;1650.806058;1444.4553;1444.4553;1444.4553;0;1358
1.166;1650.806058;1444.4553;0;1444.4553;1444.4553;1444.4553;1444.4553;0;1358
1.168;1650.806058;1650.806058;0;1444.4553;1444.4553;1444.4553;1444.4553;0;1358
1.17;1444.4553;1650.806058;0;1238.104543;1444.4553;1444.4553;1444.4553;0;1358
1.172;1650.806058;1650.806058;0;1238.104543;1444.4553;1444.4553;1444.4553;0;1352
1.174;1238.104543;1650.806058;0;619.0522716;1444.4553;1444.4553;1444.4553;0;1354
1.176;1650.806058;1444.4553;0;2063.507572;1444.4553;1444.4553;1444.4553;0;1354
1.178;1650.806058;1444.4553;0;1857.156815;1444.4553;1444.4553;1444.4553;0;1355
1.18;1650.806058;1444.4553;0;1857.156815;1444.4553;1444.4553;1444.4553;0;1355
1.182;1650.806058;1444.4553;0;1650.806058;1444.4553;1444.4553;1444.4553;0;1356
1.184;1650.806058;1444.4553;0;1444.4553;1444.4553;1444.4553;1444.4553;0;1356
1.186;1444.4553;1650.806058;0;1444.4553;1444.4553;1444.4553;1444.4553;0;1356
1.188;1444.4553;1650.806058;0;1444.4553;1444.4553;1444.4553;1444.4553;0;1356
1.19;1650.806058;1650.806058;0;1444.4553;1444.4553;1444.4553;1444.4553;0;1356
1.192;1650.806058;1650.806058;0;1650.806058;1444.4553;1444.4553;1444.4553;0;1357
1.194;1650.806058;1650.806058;0;1857.156815;1444.4553;1444.4553;1444.4553;0;1357
1.196;1650.806058;1857.156815;0;1650.806058;1444.4553;1444.4553;1444.4553;0;1357
1.198;1444.4553;1650.806058;0;1238.104543;1444.4553;1444.4553;1444.4553;0;1351
1.2;1238.104543;1238.104543;0;412.7015144;1444.4553;1444.4553;1444.4553;0;1352
1.202;1444.4553;1031.753786;0;1444.4553;1444.4553;1444.4553;1444.4553;0;1353
1.204;1650.806058;1031.753786;0;1650.806058;1444.4553;1444.4553;1444.4553;0;1353
1.206;1650.806058;1238.104543;0;1857.156815;1444.4553;1444.4553;1444.4553;0;1354
1.208;1650.806058;1444.4553;0;1857.156815;1444.4553;1444.4553;1444.4553;0;1355
1.21;1650.806058;1650.806058;0;1857.156815;1444.4553;1444.4553;1444.4553;0;1355
1.212;1650.806058;1444.4553;0;1650.806058;1444.4553;1444.4553;1444.4553;0;1355
1.214;1650.806058;1444.4553;0;1650.806058;1444.4553;1444.4553;1444.4553;0;1356
1.216;1444.4553;1444.4553;0;1444.4553;1444.4553;1444.4553;1444.4553;0;1356
1.218;1444.4553;1650.806058;0;1238.104543;1444.4553;1444.4553;1444.4553;0;1357
1.22;1444.4553;1650.806058;0;1238.104543;1444.4553;1444.4553;1444.4553;0;1357
1.222;1444.4553;1650.806058;0;1444.4553;1444.4553;1444.4553;1444.4553;0;1357
1.224;1650.806058;1650.806058;0;1444.4553;1444.4553;1444.4553;1444.4553;0;1351
1.226;1238.104543;1650.806058;0;619.0522716;1444.4553;1444.4553;1444.4553;0;1352
1.228;1650.806058;1444.4553;0;1857.156815;1444.4553;1444.4553;1444.4553;0;1353
1.23;1650.806058;1444.4553;0;1650.806058;1444.4553;1444.4553;1444.4553;0;1354
1.232;1650.806058;1444.4553;0;1444.4553;1444.4553;1444.4553;1444.4553;0;1354
1.234;1444.4553;1444.4553;0;1444.4553;1444.4553;1444.4553;1444.4553;0;1355
1.236;1444.4553;1444.4553;0;1444.4553;1444.4553;1444.4553;1444.4553;0;1355
1.238;1650.806058;1444.4553;0;1650.806058;1444.4553;1444.4553;1444.4553;0;1356
1.24;1650.806058;1444.4553;0;1650.806058;1444.4553;1444.4553;1444.4553;0;1356
1.242;1650.806058;1444.4553;0;1650.806058;1444.4553;1444.4553;1444.4553;0;1356
1.244;1650.806058;1444.4553;0;1650.806058;1444.4553;1444.4553;1444.4553;0;1356
1.246;1650.806058;1444.4553;0;1650.806058;1444.4553;1444.4553;1444.4553;0;1356
1.248;1444.4553;1444.4553;0;1444.4553;1444.4553;1444.4553;1444.4553;0;1357
1.25;1444.4553;1650.806058;0;1238.104543;1444.4553;1444.4553;1444.4553;0;1351
1.252;1238.104543;1650.806058;0;412.7015144;1444.4553;1444.4553;1444.4553;0;1352
1.254;1650.806058;1650.806058;0;1857.156815;1444.4553;1444.4553;1444.4553;0;1353
1.256;1650.806058;1650.806058;0;1857.156815;1444.4553;1444.4553;1444.4553;0;1354
1.258;1650.806058;1444.4553;0;1857.156815;1444.4553;1444.4553;1444.4553;0;1354
1.26;1650.806058;1444.4553;0;1857.156815;1444.4553;1444.4553;1444.4553;0;1354
1.262;1650.806058;1444.4553;0;1650.806058;1444.4553;1444.4553;1444.4553;0;1355
1.264;1650.806058;1444.4553;0;1650.806058;1444.4553;1444.4553;1444.4553;0;1355
1.266;1444.4553;1444.4553;0;1444.4553;1444.4553;1444.4553;1444.4553;0;1356
1.268;1444.4553;1650.806058;0;1444.4553;1444.4553;1444.4553;1444.4553;0;1356
1.27;1650.806058;1444.4553;0;1444.4553;1444.4553;1444.4553;1444.4553;0;1356
1.272;1650.806058;1650.806058;0;1650.806058;1444.4553;1444.4553;1444.4553;0;1356
1.274;1650.806058;1444.4553;0;1650.806058;1444.4553;1444.4553;1444.4553;0;1356
1.276;1650.806058;1444.4553;0;1444.4553;1444.4553;1444.4553;1444.4553;0;1351
1.278;1238.104543;1650.806058;0;412.7015144;1444.4553;1444.4553;1444.4553;0;1352
1.28;1650.806058;1444.4553;0;1857.156815;1444.4553;1444.4553;1444.4553;0;1352
1.282;1444.4553;1444.4553;0;1650.806058;1444.4553;1444.4553;1444.4553;0;1353
1.284;1444.4553;1444.4553;0;1650.806058;1444.4553;1444.4553;1444.4553;0;1354
1.286;1444.4553;1444.4553;0;1650.806058;1444.4553;1444.4553;1444.4553;0;1354
1.288;1444.4553;1444.4553;0;1857.156815;1444.4553;1444.4553;1444.4553;0;1354
1.29;1650.806058;1444.4553;0;1857.156815;1444.4553;1444.4553;1444.4553;0;1355
1.292;1650.806058;1444.4553;0;1857.156815;1444.4553;1444.4553;1444.4553;0;1355
1.294;1444.4553;1650.806058;0;1650.806058;1444.4553;1444.4553;1444.4553;0;1356
1.296;1444.4553;1444.4553;0;1444.4553;1444.4553;1444.4553;1444.4553;0;1356
1.298;1444.4553;1444.4553;0;1238.104543;1444.4553;1444.4553;1444.4553;0;1356
1.3;1444.4553;1444.4553;0;1238.104543;1444.4553;1444.4553;1444.4553;0;1356
1.302;1444.4553;1444.4553;0;1444.4553;1444.4553;1444.4553;1444.4553;0;1351
1.304;1238.104543;1444.4553;0;619.0522716;1444.4553;1444.4553;1444.4553;0;1352
1.306;1650.806058;1444.4553;0;2063.507572;1444.4553;1444.4553;1444.4553;0;1352
1.308;1650.806058;1444.4553;0;1857.156815;1444.4553;1444.4553;1444.4553;0;1353
1.31;1650.806058;1444.4553;0;1650.806058;1444.4553;1444.4553;1444.4553;0;1353
1.312;1444.4553;1444.4553;0;1444.4553;1444.4553;1444.4553;1444.4553;0;1354
1.314;1444.4553;1444.4553;0;1444.4553;1444.4553;1444.4553;1444.4553;0;1354
1.316;1650.806058;1650.806058;0;1238.104543;1444.4553;1444.4553;1444.4553;0;1355
1.318;1650.806058;1650.806058;0;1444.4553;1444.4553;1444.4553;1444.4553;0;1355
1.32;1650.806058;1650.806058;0;1650.806058;1444.4553;1444.4553;1444.4553;0;1355
1.322;1650.806058;1444.4553;0;1650.806058;1444.4553;1444.4553;1444.4553;0;1356
1.324;1650.806058;1444.4553;0;1857.156815;1444.4553;1444.4553;1444.4553;0;1356
1.326;1650.806058;1444.4553;0;1650.806058;1444.4553;1444.4553;1444.4553;0;1356
1.328;1444.4553;1444.4553;0;1238.104543;1444.4553;1444.4553;1444.4553;0;1350
1.33;1238.104543;1444.4553;0;412.7015144;1444.4553;1444.4553;1444.4553;0;1351
1.332;1650.806058;1444.4553;0;1650.806058;1444.4553;1444.4553;1444.4553;0;1352
1.334;1650.806058;1444.4553;0;1650.806058;1444.4553;1444.4553;1444.4553;0;1352
1.336;1650.806058;1444.4553;0;1857.156815;1444.4553;1444.4553;1444.4553;0;1353
1.338;1650.806058;1444.4553;0;1857.156815;1444.4553;1444.4553;1444.4553;0;1354
1.34;1650.806058;1444.4553;0;1857.156815;1444.4553;1444.4553;1444.4553;0;1354
1.342;1650.806058;1444.4553;0;1650.806058;1444.4553;1444.4553;1444.4553;0;1355
1.344;1650.806058;1444.4553;0;1444.4553;1444.4553;1444.4553;1444.4553;0;1355
1.346;1650.806058;1444.4553;0;1444.4553;1444.4553;1444.4553;1444.4553;0;1355
1.348;1444.4553;1444.4553;0;1238.104543;1444.4553;1444.4553;1444.4553;0;1355
1.35;1444.4553;1444.4553;0;1238.104543;1444.4553;1444.4553;1444.4553;0;1356
1.352;1444.4553;1444.4553;0;1444.4553;1444.4553;1444.4553;1444.4553;0;1356
1.354;1650.806058;1444.4553;0;1650.806058;1444.4553;1444.4553;1444.4553;0;1350
1.356;1444.4553;1444.4553;0;619.0522716;1444.4553;1444.4553;1444.4553;0;1351
1.358;1650.806058;1444.4553;0;1857.156815;1444.4553;1444.4553;1444.4553;0;1352
1.36;1650.806058;1444.4553;0;1650.806058;1444.4553;1444.4553;1444.4553;0;1353
1.362;1650.806058;1444.4553;0;1444.4553;1444.4553;1444.4553;1444.4553;0;1353
1.364;1650.806058;1444.4553;0;1444.4553;1444.4553;1444.4553;1444.4553;0;1354
1.366;1444.4553;1444.4553;0;1444.4553;1444.4553;1444.4553;1444.4553;0;1354
1.368;1444.4553;1444.4553;0;1444.4553;1444.4553;1444.4553;1444.4553;0;1355
1.37;1650.806058;1444.4553;0;1650.806058;1444.4553;1444.4553;1444.4553;0;1355
1.372;1650.806058;1444.4553;0;1650.806058;1444.4553;1444.4553;1444.4553;0;1355
1.374;1650.806058;1444.4553;0;1650.806058;1444.4553;1444.4553;1444.4553;0;1355
1.376;1650.806058;1444.4553;0;1650.806058;1444.4553;1444.4553;1444.4553;0;1356
1.378;1444.4553;1444.4553;0;1444.4553;1444.4553;1444.4553;1444.4553;0;1356
1.38;1444.4553;1650.806058;0;1238.104543;1444.4553;1444.4553;1444.4553;0;1350
1.382;1238.104543;1650.806058;0;412.7015144;1444.4553;1444.4553;1444.4553;0;1351
1.384;1650.806058;1650.806058;0;1857.156815;1444.4553;1444.4553;1444.4553;0;1352
1.386;1650.806058;1444.4553;0;1857.156815;1444.4553;1444.4553;1444.4553;0;1353
1.388;1650.806058;1444.4553;0;1857.156815;1444.4553;1444.4553;1444.4553;0;1353
1.39;1650.806058;1444.4553;0;1650.806058;1444.4553;1444.4553;1444.4553;0;1354
1.392;1650.806058;1444.4553;0;1650.806058;1444.4553;1444.4553;1444.4553;0;1354
1.394;1650.806058;1650.806058;0;1650.806058;1444.4553;1444.4553;1444.4553;0;1355
1.396;1444.4553;1444.4553;0;1238.104543;1444.4553;1444.4553;1444.4553;0;1355
1.398;1444.4553;1650.806058;0;1238.104543;1444.4553;1444.4553;1444.4553;0;1355
1.4;1444.4553;1650.806058;0;1238.104543;1444.4553;1444.4553;1444.4553;0;1356
1.402;1650.806058;1650.806058;0;1444.4553;1444.4553;1444.4553;1444.4553;0;1356
1.404;1650.806058;1444.4553;0;1650.806058;1444.4553;1444.4553;1444.4553;0;1356
1.406;1650.806058;1444.4553;0;1650.806058;1444.4553;1444.4553;1444.4553;0;1356
1.408;1650.806058;1444.4553;0;1444.4553;1444.4553;1444.4553;1444.4553;0;1350
1.41;1238.104543;1650.806058;0;206.3507572;1444.4553;1444.4553;1444.4553;0;1352
1.412;1444.4553;1444.4553;0;1444.4553;1444.4553;1444.4553;1444.4553;0;1353
1.414;1650.806058;1444.4553;0;1650.806058;1444.4553;1444.4553;1444.4553;0;1353
1.416;1650.806058;1444.4553;0;1650.806058;1444.4553;1444.4553;1444.4553;0;1354
1.418;1650.806058;1650.806058;0;1857.156815;1444.4553;1444.4553;1444.4553;0;1354
1.42;1650.806058;1650.806058;0;1857.156815;1444.4553;1444.4553;1444.4553;0;1355
1.422;1650.806058;1650.806058;0;1650.806058;1444.4553;1444.4553;1444.4553;0;1355
1.424;1650.806058;1444.4553;0;1444.4553;1444.4553;1444.4553;1444.4553;0;1356
1.426;1444.4553;1444.4553;0;1444.4553;1444.4553;1444.4553;1444.4553;0;1356
1.428;1650.806058;1444.4553;0;1444.4553;1444.4553;1444.4553;1444.4553;0;1356
1.43;1444.4553;1650.806058;0;1238.104543;1444.4553;1444.4553;1444.4553;0;1357
1.432;1650.806058;1444.4553;0;1238.104543;1444.4553;1444.4553;1444.4553;0;1352
1.434;1238.104543;1650.806058;0;619.0522716;1444.4553;1444.4553;1444.4553;0;1353
1.436;1650.806058;1444.4553;0;2063.507572;1444.4553;1444.4553;1444.4553;0;1354
1.438;1650.806058;1444.4553;0;1857.156815;1444.4553;1444.4553;1444.4553;0;1354
1.44;1650.806058;1444.4553;0;1857.156815;1444.4553;1444.4553;1444.4553;0;1355
1.442;1650.806058;1444.4553;0;1650.806058;1444.4553;1444.4553;1444.4553;0;1355
1.444;1650.806058;1444.4553;0;1444.4553;1444.4553;1444.4553;1444.4553;0;1356
1.446;1444.4553;1444.4553;0;1444.4553;1444.4553;1444.4553;1444.4553;0;1356
1.448;1444.4553;1650.806058;0;1444.4553;1444.4553;1444.4553;1444.4553;0;1357
1.45;1650.806058;1650.806058;0;1650.806058;1444.4553;1444.4553;1444.4553;0;1357
1.452;1650.806058;1444.4553;0;1650.806058;1444.4553;1444.4553;1444.4553;0;1357
1.454;1650.806058;1444.4553;0;1857.156815;1444.4553;1444.4553;1444.4553;0;1357
1.456;1650.806058;1444.4553;0;1650.806058;1444.4553;1444.4553;1444.4553;0;1358
1.458;1444.4553;1444.4553;0;1238.104543;1444.4553;1444.4553;1444.4553;0;1358
1.46;1238.104543;1650.806058;0;412.7015144;1444.4553;1444.4553;1444.4553;0;1353
1.462;1444.4553;1650.806058;0;1238.104543;1444.4553;1444.4553;1444.4553;0;1354
1.464;1650.806058;1650.806058;0;1857.156815;1444.4553;1444.4553;1444.4553;0;1354
1.466;1650.806058;1650.806058;0;1857.156815;1444.4553;1444.4553;1444.4553;0;1355
1.468;1650.806058;1650.806058;0;1857.156815;1444.4553;1444.4553;1444.4553;0;1355
1.47;1650.806058;1650.806058;0;1857.156815;1444.4553;1444.4553;1444.4553;0;1356
1.472;1650.806058;1650.806058;0;1650.806058;1444.4553;1444.4553;1444.4553;0;1356
1.474;1650.806058;1444.4553;0;1444.4553;1444.4553;1444.4553;1444.4553;0;1357
1.476;1650.806058;1650.806058;0;1444.4553;1444.4553;1444.4553;1444.4553;0;1357
1.478;1444.4553;1650.806058;0;1444.4553;1444.4553;1444.4553;1444.4553;0;1357
1.48;1650.806058;1650.806058;0;1444.4553;1444.4553;1444.4553;1444.4553;0;1358
1.482;1650.806058;1650.806058;0;1650.806058;1444.4553;1444.4553;1444.4553;0;1358
1.484;1650.806058;1650.806058;0;1444.4553;1444.4553;1444.4553;1444.4553;0;1352
1.486;1238.104543;1650.806058;0;619.0522716;1444.4553;1444.4553;1444.4553;0;1353
1.488;1650.806058;1444.4553;0;1857.156815;1444.4553;1444.4553;1444.4553;0;1354
1.49;1650.806058;1444.4553;0;1650.806058;1444.4553;1444.4553;1444.4553;0;1354
1.492;1650.806058;1444.4553;0;1444.4553;1444.4553;1444.4553;1444.4553;0;1355
1.494;1444.4553;1650.806058;0;1444.4553;1444.4553;1444.4553;1444.4553;0;1356
1.496;1650.806058;1650.806058;0;1444.4553;1444.4553;1444.4553;1444.4553;0;1356
1.498;1650.806058;1650.806058;0;1650.806058;1444.4553;1444.4553;1444.4553;0;1356
1.5;1650.806058;1650.806058;0;1857.156815;1444.4553;1444.4553;1444.4553;0;1357
1.502;1650.806058;1650.806058;0;1857.156815;1444.4553;1444.4553;1444.4553;0;1357
1.504;1650.806058;1650.806058;0;1857.156815;1444.4553;1444.4553;1444.4553;0;1357
1.506;1650.806058;1650.806058;0;1650.806058;1444.4553;1444.4553;1444.4553;0;1357
1.508;1444.4553;1650.806058;0;1444.4553;1444.4553;1444.4553;1444.4553;0;1358
1.51;1444.4553;1650.806058;0;1031.753786;1444.4553;1444.4553;1444.4553;0;1352
1.512;1238.104543;1650.806058;0;619.0522716;1444.4553;1444.4553;1444.4553;0;1353
1.514;1650.806058;1444.4553;0;2063.507572;1444.4553;1444.4553;1444.4553;0;1354
1.516;1650.806058;1444.4553;0;2063.507572;1650.806058;1650.806058;1650.806058;0;1354
1.518;1650.806058;1444.4553;0;1857.156815;1650.806058;1650.806058;1650.806058;0;1355
1.52;1650.806058;1444.4553;0;1650.806058;1444.4553;1444.4553;1444.4553;0;1355
1.522;1650.806058;1444.4553;0;1650.806058;1444.4553;1444.4553;1444.4553;0;1356
1.524;1650.806058;1444.4553;0;1444.4553;1444.4553;1444.4553;1444.4553;0;1356
1.526;1444.4553;1444.4553;0;1238.104543;1444.4553;1444.4553;1444.4553;0;1357
1.528;1444.4553;1650.806058;0;1444.4553;1444.4553;1444.4553;1444.4553;0;1357
1.53;1444.4553;1650.806058;0;1444.4553;1444.4553;1444.4553;1444.4553;0;1357
1.532;1650.806058;1444.4553;0;1650.806058;1444.4553;1444.4553;1444.4553;0;1357
1.534;1650.806058;1444.4553;0;1857.156815;1444.4553;1444.4553;1444.4553;0;1357
1.536;1650.806058;1444.4553;0;1444.4553;1444.4553;1444.4553;1444.4553;0;1351
1.538;1238.104543;1650.806058;0;619.0522716;1444.4553;1444.4553;1444.4553;0;1352
1.54;1650.806058;1444.4553;0;1650.806058;1444.4553;1444.4553;1444.4553;0;1353
1.542;1650.806058;1444.4553;0;1650.806058;1444.4553;1444.4553;1444.4553;0;1354
1.544;1650.806058;1650.806058;0;1650.806058;1444.4553;1444.4553;1444.4553;0;1354
1.546;1650.806058;1444.4553;0;1650.806058;1444.4553;1444.4553;1444.4553;0;1354
1.548;1650.806058;1444.4553;0;1650.806058;1444.4553;1444.4553;1444.4553;0;1355
1.55;1650.806058;1444.4553;0;1857.156815;1444.4553;1444.4553;1444.4553;0;1355
1.552;1650.806058;1650.806058;0;1650.806058;1444.4553;1444.4553;1444.4553;0;1355
1.554;1650.806058;1444.4553;0;1650.806058;1444.4553;1444.4553;1444.4553;0;1356
1.556;1650.806058;1444.4553;0;1444.4553;1444.4553;1444.4553;1444.4553;0;1356
1.558;1444.4553;1650.806058;0;1238.104543;1444.4553;1444.4553;1444.4553;0;1356
1.56;1444.4553;1650.806058;0;1238.104543;1444.4553;1444.4553;1444.4553;0;1356
1.562;1444.4553;1650.806058;0;1444.4553;1444.4553;1444.4553;1444.4553;0;1350
1.564;1238.104543;1650.806058;0;619.0522716;1444.4553;1444.4553;1444.4553;0;1351
1.566;1650.806058;1444.4553;0;1857.156815;1444.4553;1444.4553;1444.4553;0;1352
1.568;1650.806058;1444.4553;0;1857.156815;1444.4553;1444.4553;1444.4553;0;1353
1.57;1650.806058;1650.806058;0;1650.806058;1444.4553;1444.4553;1444.4553;0;1353
1.572;1650.806058;1650.806058;0;1444.4553;1444.4553;1444.4553;1444.4553;0;1353
1.574;1650.806058;1650.806058;0;1238.104543;1444.4553;1444.4553;1444.4553;0;1354
1.576;1650.806058;1650.806058;0;1444.4553;1444.4553;1444.4553;1444.4553;0;1354
1.578;1444.4553;1650.806058;0;1444.4553;1444.4553;1444.4553;1444.4553;0;1354
1.58;1650.806058;1650.806058;0;1650.806058;1444.4553;1444.4553;1444.4553;0;1355
1.582;1650.806058;1650.806058;0;1650.806058;1444.4553;1444.4553;1444.4553;0;1355
1.584;1650.806058;1650.806058;0;1650.806058;1444.4553;1444.4553;1444.4553;0;1355
1.586;1650.806058;1650.806058;0;1650.806058;1444.4553;1444.4553;1444.4553;0;1354
1.588;1444.4553;1650.806058;0;1238.104543;1444.4553;1444.4553;1444.4553;0;1349
1.59;1238.104543;1650.806058;0;412.7015144;1444.4553;1444.4553;1444.4553;0;1350
1.592;1650.806058;1650.806058;0;1650.806058;1444.4553;1444.4553;1444.4553;0;1349
1.594;1650.806058;1650.806058;0;1857.156815;1444.4553;1444.4553;1444.4553;0;1350
1.596;1650.806058;1444.4553;0;1857.156815;1444.4553;1444.4553;1444.4553;0;1351
1.598;1650.806058;1444.4553;0;1857.156815;1444.4553;1444.4553;1444.4553;0;1351
1.6;1650.806058;1444.4553;0;1650.806058;1444.4553;1444.4553;1444.4553;0;1352
1.602;1650.806058;1444.4553;0;1650.806058;1444.4553;1444.4553;1444.4553;0;1352
1.604;1444.4553;1444.4553;0;1444.4553;1444.4553;1444.4553;1444.4553;0;1353
1.606;1444.4553;1650.806058;0;1444.4553;1444.4553;1444.4553;1444.4553;0;1353
1.608;1444.4553;1650.806058;0;1444.4553;1444.4553;1444.4553;1444.4553;0;1353
1.61;1444.4553;1650.806058;0;1650.806058;1444.4553;1444.4553;1444.4553;0;1352
1.612;1650.806058;1650.806058;0;1650.806058;1444.4553;1444.4553;1444.4553;0;1352
1.614;1650.806058;1650.806058;0;1444.4553;1444.4553;1444.4553;1444.4553;0;1347
1.616;1238.104543;1650.806058;0;619.0522716;1444.4553;1444.4553;1444.4553;0;1348
1.618;1650.806058;1444.4553;0;1857.156815;1444.4553;1444.4553;1444.4553;0;1349
1.62;1650.806058;1650.806058;0;1650.806058;1444.4553;1444.4553;1444.4553;0;1350
1.622;1444.4553;1650.806058;0;1444.4553;1444.4553;1444.4553;1444.4553;0;1350
1.624;1650.806058;1650.806058;0;1444.4553;1444.4553;1444.4553;1444.4553;0;1351
1.626;1650.806058;1650.806058;0;1650.806058;1444.4553;1444.4553;1444.4553;0;1351
1.628;1650.806058;1650.806058;0;1650.806058;1444.4553;1444.4553;1444.4553;0;1351
1.63;1650.806058;1444.4553;0;1650.806058;1444.4553;1444.4553;1444.4553;0;1351
1.632;1650.806058;1444.4553;0;1650.806058;1444.4553;1444.4553;1444.4553;0;1351
1.634;1650.806058;1650.806058;0;1650.806058;1444.4553;1444.4553;1444.4553;0;1351
1.636;1650.806058;1650.806058;0;1444.4553;1444.4553;1444.4553;1444.4553;0;1352
1.638;1650.806058;1650.806058;0;1444.4553;1444.4553;1444.4553;1444.4553;0;1352
1.64;1444.4553;1650.806058;0;1238.104543;1444.4553;1444.4553;1444.4553;0;1347
1.642;1238.104543;1650.806058;0;619.0522716;1444.4553;1444.4553;1444.4553;0;1348
1.644;1650.806058;1444.4553;0;2063.507572;1444.4553;1444.4553;1444.4553;0;1348
1.646;1650.806058;1444.4553;0;2063.507572;1444.4553;1444.4553;1444.4553;0;1349
1.648;1650.806058;1444.4553;0;1857.156815;1444.4553;1444.4553;1444.4553;0;1350
1.65;1650.806058;1444.4553;0;1650.806058;1444.4553;1444.4553;1444.4553;0;1350
1.652;1650.806058;1650.806058;0;1444.4553;1650.806058;1650.806058;1650.806058;0;1351
1.654;1444.4553;1650.806058;0;1238.104543;1444.4553;1444.4553;1444.4553;0;1351
1.656;1444.4553;1650.806058;0;1444.4553;1444.4553;1444.4553;1444.4553;0;1351
1.658;1650.806058;1650.806058;0;1444.4553;1444.4553;1444.4553;1444.4553;0;1351
1.66;1650.806058;1650.806058;0;1650.806058;1650.806058;1650.806058;1650.806058;0;1352
1.662;1650.806058;1650.806058;0;1857.156815;1650.806058;1650.806058;1650.806058;0;1351
1.664;1650.806058;1444.4553;0;1857.156815;1444.4553;1444.4553;1444.4553;0;1352
1.666;1650.806058;1444.4553;0;1444.4553;1444.4553;1444.4553;1444.4553;0;1346
1.668;1238.104543;1650.806058;0;412.7015144;1444.4553;1444.4553;1444.4553;0;1347
1.67;1650.806058;1444.4553;0;1444.4553;1444.4553;1444.4553;1444.4553;0;1348
1.672;1650.806058;1444.4553;0;1444.4553;1444.4553;1444.4553;1444.4553;0;1348
1.674;1650.806058;1444.4553;0;1650.806058;1444.4553;1444.4553;1444.4553;0;1349
1.676;1650.806058;1444.4553;0;1857.156815;1650.806058;1650.806058;1650.806058;0;1350
1.678;1650.806058;1444.4553;0;1857.156815;1444.4553;1444.4553;1444.4553;0;1351
1.68;1650.806058;1650.806058;0;1650.806058;1444.4553;1444.4553;1444.4553;0;1351
1.682;1650.806058;1444.4553;0;1444.4553;1444.4553;1444.4553;1444.4553;0;1351
1.684;1444.4553;1650.806058;0;1238.104543;1444.4553;1444.4553;1444.4553;0;1351
1.686;1444.4553;1650.806058;0;1238.104543;1444.4553;1444.4553;1444.4553;0;1351
1.688;1444.4553;1650.806058;0;1031.753786;1444.4553;1444.4553;1444.4553;0;1351
1.69;1444.4553;1650.806058;0;1238.104543;1444.4553;1444.4553;1444.4553;0;1352
1.692;1444.4553;1650.806058;0;1238.104543;1444.4553;1444.4553;1444.4553;0;1346
1.694;1238.104543;1650.806058;0;619.0522716;1444.4553;1444.4553;1444.4553;0;1348
1.696;1650.806058;1650.806058;0;2063.507572;1444.4553;1444.4553;1444.4553;0;1348
1.698;1444.4553;1650.806058;0;1857.156815;1444.4553;1444.4553;1444.4553;0;1349
1.7;1444.4553;1650.806058;0;1650.806058;1444.4553;1444.4553;1444.4553;0;1349
1.702;1444.4553;1650.806058;0;1444.4553;1444.4553;1444.4553;1444.4553;0;1350
1.704;1444.4553;1650.806058;0;1444.4553;1444.4553;1444.4553;1444.4553;0;1350
1.706;1650.806058;1650.806058;0;1650.806058;1444.4553;1444.4553;1444.4553;0;1350
1.708;1650.806058;1650.806058;0;1857.156815;1650.806058;1650.806058;1650.806058;0;1350
1.71;1650.806058;1444.4553;0;2063.507572;1650.806058;1650.806058;1650.806058;0;1350
1.712;1650.806058;1444.4553;0;2063.507572;1650.806058;1650.806058;1650.806058;0;1350
1.714;1650.806058;1444.4553;0;1857.156815;1444.4553;1444.4553;1444.4553;0;1350
1.716;1650.806058;1444.4553;0;1650.806058;1444.4553;1444.4553;1444.4553;0;1350
1.718;1444.4553;1444.4553;0;1031.753786;1444.4553;1444.4553;1444.4553;0;1344
1.72;1238.104543;1650.806058;0;619.0522716;1444.4553;1444.4553;1444.4553;0;1346
1.722;1650.806058;1444.4553;0;1857.156815;1444.4553;1444.4553;1444.4553;0;1346
1.724;1650.806058;1444.4553;0;1857.156815;1444.4553;1444.4553;1444.4553;0;1347
1.726;1650.806058;1444.4553;0;2063.507572;1444.4553;1444.4553;1444.4553;0;1347
1.728;1650.806058;1444.4553;0;1857.156815;1444.4553;1444.4553;1444.4553;0;1348
1.73;1650.806058;1650.806058;0;1857.156815;1444.4553;1444.4553;1444.4553;0;1348
1.732;1650.806058;1444.4553;0;1650.806058;1444.4553;1444.4553;1444.4553;0;1348
1.734;1444.4553;1444.4553;0;1444.4553;1444.4553;1444.4553;1444.4553;0;1349
1.736;1444.4553;1444.4553;0;1238.104543;1444.4553;1444.4553;1444.4553;0;1349
1.738;1444.4553;1650.806058;0;1444.4553;1444.4553;1444.4553;1444.4553;0;1349
1.74;1650.806058;1650.806058;0;1650.806058;1444.4553;1444.4553;1444.4553;0;1349
1.742;1650.806058;1444.4553;0;1650.806058;1444.4553;1444.4553;1444.4553;0;1349
1.744;1650.806058;1444.4553;0;1444.4553;1444.4553;1444.4553;1444.4553;0;1344
1.746;1238.104543;1650.806058;0;619.0522716;1444.4553;1444.4553;1444.4553;0;1345
1.748;1444.4553;1444.4553;0;1650.806058;1444.4553;1444.4553;1444.4553;0;1346
1.75;1650.806058;1650.806058;0;1650.806058;1444.4553;1444.4553;1444.4553;0;1346
1.752;1444.4553;1650.806058;0;1444.4553;1444.4553;1444.4553;1444.4553;0;1346
1.754;1650.806058;1650.806058;0;1444.4553;1444.4553;1444.4553;1444.4553;0;1347
1.756;1650.806058;1650.806058;0;1650.806058;1444.4553;1444.4553;1444.4553;0;1347
1.758;1650.806058;1444.4553;0;1650.806058;1444.4553;1444.4553;1444.4553;0;1347
1.76;1650.806058;1444.4553;0;1857.156815;1444.4553;1444.4553;1444.4553;0;1348
1.762;1650.806058;1444.4553;0;1650.806058;1444.4553;1444.4553;1444.4553;0;1348
1.764;1650.806058;1650.806058;0;1650.806058;1444.4553;1444.4553;1444.4553;0;1349
1.766;1444.4553;1444.4553;0;1444.4553;1444.4553;1444.4553;1444.4553;0;1349
1.768;1444.4553;1650.806058;0;1238.104543;1444.4553;1444.4553;1444.4553;0;1349
1.77;1444.4553;1650.806058;0;1238.104543;1444.4553;1444.4553;1444.4553;0;1343
1.772;1238.104543;1650.806058;0;619.0522716;1444.4553;1444.4553;1444.4553;0;1345
1.774;1650.806058;1650.806058;0;2063.507572;1444.4553;1444.4553;1444.4553;0;1346
1.776;1650.806058;1650.806058;0;2063.507572;1650.806058;1650.806058;1650.806058;0;1346
1.778;1650.806058;1650.806058;0;1857.156815;1650.806058;1650.806058;1650.806058;0;1347
1.78;1650.806058;1650.806058;0;1650.806058;1650.806058;1650.806058;1650.806058;0;1347
1.782;1650.806058;1650.806058;0;1444.4553;1444.4553;1444.4553;1444.4553;0;1347
1.784;1444.4553;1650.806058;0;1238.104543;1444.4553;1444.4553;1444.4553;0;1347
1.786;1444.4553;1650.806058;0;1238.104543;1444.4553;1444.4553;1444.4553;0;1348
1.788;1444.4553;1444.4553;0;1444.4553;1444.4553;1444.4553;1444.4553;0;1348
1.79;1444.4553;1444.4553;0;1650.806058;1444.4553;1444.4553;1444.4553;0;1348
1.792;1650.806058;1444.4553;0;1650.806058;1650.806058;1650.806058;1650.806058;0;1348
1.794;1650.806058;1444.4553;0;1650.806058;1444.4553;1444.4553;1444.4553;0;1348
1.796;1444.4553;1444.4553;0;1238.104543;1444.4553;1444.4553;1444.4553;0;1342
1.798;1238.104543;1650.806058;0;412.7015144;1444.4553;1444.4553;1444.4553;0;1343
1.8;1444.4553;1650.806058;0;1650.806058;1444.4553;1444.4553;1444.4553;0;1344
1.802;1650.806058;1650.806058;0;1650.806058;1444.4553;1444.4553;1444.4553;0;1344
1.804;1650.806058;1650.806058;0;1857.156815;1444.4553;1444.4553;1444.4553;0;1344
1.806;1650.806058;1650.806058;0;1650.806058;1444.4553;1444.4553;1444.4553;0;1344
1.808;1650.806058;1444.4553;0;1857.156815;1444.4553;1444.4553;1444.4553;0;1345
1.81;1650.806058;1444.4553;0;1650.806058;1444.4553;1444.4553;1444.4553;0;1345
1.812;1650.806058;1444.4553;0;1444.4553;1444.4553;1444.4553;1444.4553;0;1345
1.814;1444.4553;1650.806058;0;1444.4553;1444.4553;1444.4553;1444.4553;0;1346
1.816;1444.4553;1650.806058;0;1238.104543;1444.4553;1444.4553;1444.4553;0;1346
1.818;1444.4553;1650.806058;0;1238.104543;1444.4553;1444.4553;1444.4553;0;1346
1.82;1444.4553;1650.806058;0;1444.4553;1444.4553;1444.4553;1444.4553;0;1346
1.822;1650.806058;1650.806058;0;1650.806058;1444.4553;1444.4553;1444.4553;0;1340
1.824;1238.104543;1650.806058;0;619.0522716;1444.4553;1444.4553;1444.4553;0;1341
1.826;1650.806058;1650.806058;0;2063.507572;1444.4553;1444.4553;1444.4553;0;1342
1.828;1650.806058;1650.806058;0;1857.156815;1444.4553;1444.4553;1444.4553;0;1343
1.83;1650.806058;1444.4553;0;1444.4553;1444.4553;1444.4553;1444.4553;0;1343
1.832;1444.4553;1444.4553;0;1238.104543;1444.4553;1444.4553;1444.4553;0;1344
1.834;1650.806058;1444.4553;0;1238.104543;1444.4553;1444.4553;1444.4553;0;1344
1.836;1650.806058;1444.4553;0;1444.4553;1444.4553;1444.4553;1444.4553;0;1344
1.838;1650.806058;1444.4553;0;1650.806058;1444.4553;1444.4553;1444.4553;0;1344
1.84;1650.806058;1444.4553;0;1650.806058;1444.4553;1444.4553;1444.4553;0;1344
1.842;1650.806058;1444.4553;0;1650.806058;1444.4553;1444.4553;1444.4553;0;1345
1.844;1650.806058;1444.4553;0;1650.806058;1444.4553;1444.4553;1444.4553;0;1345
1.846;1650.806058;1650.806058;0;1444.4553;1444.4553;1444.4553;1444.4553;0;1345
1.848;1444.4553;1650.806058;0;1031.753786;1444.4553;1444.4553;1444.4553;0;1339
1.85;1238.104543;1650.806058;0;412.7015144;1444.4553;1444.4553;1444.4553;0;1340
1.852;1650.806058;1650.806058;0;1857.156815;1444.4553;1444.4553;1444.4553;0;1341
1.854;1650.806058;1650.806058;0;1857.156815;1444.4553;1444.4553;1444.4553;0;1342
1.856;1650.806058;1444.4553;0;1857.156815;1444.4553;1444.4553;1444.4553;0;1342
1.858;1650.806058;1444.4553;0;1857.156815;1444.4553;1444.4553;1444.4553;0;1343
1.86;1650.806058;1444.4553;0;1650.806058;1444.4553;1444.4553;1444.4553;0;1343
1.862;1650.806058;1650.806058;0;1444.4553;1444.4553;1444.4553;1444.4553;0;1343
1.864;1444.4553;1650.806058;0;1238.104543;1444.4553;1444.4553;1444.4553;0;1343
1.866;1444.4553;1650.806058;0;1444.4553;1444.4553;1444.4553;1444.4553;0;1343
1.868;1444.4553;1650.806058;0;1444.4553;1444.4553;1444.4553;1444.4553;0;1343
1.87;1444.4553;1650.806058;0;1650.806058;1444.4553;1444.4553;1444.4553;0;1343
1.872;1650.806058;1650.806058;0;1650.806058;1444.4553;1444.4553;1444.4553;0;1343
1.874;1650.806058;1444.4553;0;1444.4553;1444.4553;1444.4553;1444.4553;0;1338
1.876;1238.104543;1650.806058;0;619.0522716;1444.4553;1444.4553;1444.4553;0;1339
1.878;1650.806058;1444.4553;0;1650.806058;1444.4553;1444.4553;1444.4553;0;1339
1.88;1650.806058;1650.806058;0;1444.4553;1444.4553;1444.4553;1444.4553;0;1340
1.882;1650.806058;1650.806058;0;1444.4553;1444.4553;1444.4553;1444.4553;0;1341
1.884;1650.806058;1650.806058;0;1650.806058;1444.4553;1444.4553;1444.4553;0;1341
1.886;1650.806058;1444.4553;0;1650.806058;1444.4553;1444.4553;1444.4553;0;1341
1.888;1650.806058;1444.4553;0;1650.806058;1444.4553;1444.4553;1444.4553;0;1342
1.89;1650.806058;1444.4553;0;1650.806058;1444.4553;1444.4553;1444.4553;0;1342
1.892;1650.806058;1444.4553;0;1650.806058;1444.4553;1444.4553;1444.4553;0;1343
1.894;1444.4553;1444.4553;0;1444.4553;1444.4553;1444.4553;1444.4553;0;1343
1.896;1444.4553;1650.806058;0;1444.4553;1444.4553;1444.4553;1444.4553;0;1343
1.898;1444.4553;1650.806058;0;1238.104543;1444.4553;1444.4553;1444.4553;0;1343
1.9;1444.4553;1650.806058;0;1444.4553;1444.4553;1444.4553;1444.4553;0;1338
1.902;1238.104543;1650.806058;0;619.0522716;1444.4553;1444.4553;1444.4553;0;1339
1.904;1650.806058;1650.806058;0;2063.507572;1444.4553;1444.4553;1444.4553;0;1339
1.906;1650.806058;1650.806058;0;1857.156815;1444.4553;1444.4553;1444.4553;0;1340
1.908;1650.806058;1650.806058;0;1857.156815;1444.4553;1444.4553;1444.4553;0;1341
1.91;1650.806058;1650.806058;0;1650.806058;1444.4553;1444.4553;1444.4553;0;1341
1.912;1444.4553;1650.806058;0;1238.104543;1444.4553;1444.4553;1444.4553;0;1342
1.914;1444.4553;1444.4553;0;1238.104543;1444.4553;1444.4553;1444.4553;0;1342
1.916;1650.806058;1444.4553;0;1444.4553;1444.4553;1444.4553;1444.4553;0;1342
1.918;1650.806058;1444.4553;0;1650.806058;1444.4553;1444.4553;1444.4553;0;1342
1.92;1650.806058;1444.4553;0;1857.156815;1444.4553;1444.4553;1444.4553;0;1342
1.922;1650.806058;1650.806058;0;1857.156815;1444.4553;1444.4553;1444.4553;0;1342
1.924;1650.806058;1650.806058;0;1650.806058;1444.4553;1444.4553;1444.4553;0;1342
1.926;1444.4553;1650.806058;0;1031.753786;1444.4553;1444.4553;1444.4553;0;1337
1.928;1031.753786;1650.806058;0;412.7015144;1444.4553;1444.4553;1444.4553;0;1338
1.93;1444.4553;1650.806058;0;1650.806058;1444.4553;1444.4553;1444.4553;0;1339
1.932;1650.806058;1650.806058;0;1857.156815;1650.806058;1650.806058;1650.806058;0;1340
1.934;1650.806058;1650.806058;0;1857.156815;1650.806058;1650.806058;1650.806058;0;1340
1.936;1650.806058;1650.806058;0;1857.156815;1650.806058;1650.806058;1650.806058;0;1341
1.938;1650.806058;1444.4553;0;1650.806058;1650.806058;1650.806058;1650.806058;0;1341
1.94;1650.806058;1444.4553;0;1650.806058;1650.806058;1650.806058;1650.806058;0;1342
1.942;1650.806058;1444.4553;0;1444.4553;1650.806058;1650.806058;1650.806058;0;1342
1.944;1444.4553;1444.4553;0;1238.104543;1444.4553;1444.4553;1444.4553;0;1342
1.946;1444.4553;1444.4553;0;1238.104543;1444.4553;1444.4553;1444.4553;0;1342
1.948;1444.4553;1650.806058;0;1238.104543;1650.806058;1650.806058;1650.806058;0;1342
1.95;1650.806058;1650.806058;0;1650.806058;1650.806058;1650.806058;1650.806058;0;1342
1.952;1650.806058;1650.806058;0;1650.806058;1650.806058;1650.806058;1650.806058;0;1337
1.954;1238.104543;1650.806058;0;619.0522716;1444.4553;1444.4553;1444.4553;0;1338
1.956;1650.806058;1650.806058;0;2063.507572;1650.806058;1650.806058;1650.806058;0;1339
1.958;1650.806058;1444.4553;0;1650.806058;1444.4553;1444.4553;1444.4553;0;1339
1.96;1444.4553;1444.4553;0;1444.4553;1444.4553;1444.4553;1444.4553;0;1340
1.962;1444.4553;1444.4553;0;1444.4553;1444.4553;1444.4553;1444.4553;0;1340
1.964;1650.806058;1444.4553;0;1444.4553;1444.4553;1444.4553;1444.4553;0;1341
1.966;1650.806058;1650.806058;0;1650.806058;1444.4553;1444.4553;1444.4553;0;1341
1.968;1650.806058;1650.806058;0;1650.806058;1444.4553;1444.4553;1444.4553;0;1342
1.97;1650.806058;1650.806058;0;1857.156815;1444.4553;1444.4553;1444.4553;0;1342
1.972;1650.806058;1444.4553;0;1650.806058;1444.4553;1444.4553;1444.4553;0;1342
1.974;1650.806058;1650.806058;0;1650.806058;1444.4553;1444.4553;1444.4553;0;1342
1.976;1444.4553;1650.806058;0;1444.4553;1444.4553;1444.4553;1444.4553;0;1342
1.978;1444.4553;1650.806058;0;1031.753786;1444.4553;1444.4553;1444.4553;0;1337
1.98;1238.104543;1650.806058;0;619.0522716;1444.4553;1444.4553;1444.4553;0;1337
1.982;1650.806058;1444.4553;0;2063.507572;1444.4553;1444.4553;1444.4553;0;1338
1.984;1650.806058;1444.4553;0;2063.507572;1444.4553;1444.4553;1444.4553;0;1339
1.986;1650.806058;1444.4553;0;1857.156815;1444.4553;1444.4553;1444.4553;0;1339
1.988;1650.806058;1444.4553;0;1650.806058;1444.4553;1444.4553;1444.4553;0;1340
1.99;1650.806058;1444.4553;0;1650.806058;1444.4553;1444.4553;1444.4553;0;1340
1.992;1444.4553;1444.4553;0;1444.4553;1444.4553;1444.4553;1444.4553;0;1341
1.994;1444.4553;1444.4553;0;1238.104543;1444.4553;1444.4553;1444.4553;0;1341
1.996;1444.4553;1650.806058;0;1238.104543;1444.4553;1444.4553;1444.4553;0;1341
1.998;1444.4553;1444.4553;0;1444.4553;1444.4553;1444.4553;1444.4553;0;1341
2;1650.806058;1444.4553;0;1650.806058;1444.4553;1444.4553;1444.4553;0;1342
2.002;1650.806058;1650.806058;0;1857.156815;1444.4553;1444.4553;1444.4553;0;1342
2.004;1650.806058;1650.806058;0;1238.104543;1444.4553;1444.4553;1444.4553;0;1336
2.006;1238.104543;1650.806058;0;619.0522716;1444.4553;1444.4553;1444.4553;0;1337
2.008;1650.806058;1444.4553;0;1650.806058;1444.4553;1444.4553;1444.4553;0;1338
2.01;1650.806058;1650.806058;0;1650.806058;1444.4553;1444.4553;1444.4553;0;1339
2.012;1650.806058;1650.806058;0;1444.4553;1444.4553;1444.4553;1444.4553;0;1339
2.014;1650.806058;1444.4553;0;1650.806058;1650.806058;1650.806058;1650.806058;0;1340
2.016;1650.806058;1444.4553;0;1857.156815;1444.4553;1444.4553;1444.4553;0;1340
2.018;1650.806058;1444.4553;0;1857.156815;1444.4553;1444.4553;1444.4553;0;1341
2.02;1650.806058;1650.806058;0;1857.156815;1444.4553;1444.4553;1444.4553;0;1341
2.022;1650.806058;1444.4553;0;1650.806058;1444.4553;1444.4553;1444.4553;0;1341
2.024;1444.4553;1444.4553;0;1238.104543;1444.4553;1444.4553;1444.4553;0;1341
2.026;1444.4553;1444.4553;0;1238.104543;1444.4553;1444.4553;1444.4553;0;1341
2.028;1444.4553;1444.4553;0;1238.104543;1444.4553;1444.4553;1444.4553;0;1341
2.03;1650.806058;1444.4553;0;1238.104543;1444.4553;1444.4553;1444.4553;0;1336
2.032;1238.104543;1650.806058;0;619.0522716;1444.4553;1444.4553;1444.4553;0;1337
2.034;1650.806058;1444.4553;0;2063.507572;1444.4553;1444.4553;1444.4553;0;1338
2.036;1650.806058;1444.4553;0;1857.156815;1444.4553;1444.4553;1444.4553;0;1338
2.038;1650.806058;1650.806058;0;1650.806058;1444.4553;1444.4553;1444.4553;0;1339
2.04;1444.4553;1650.806058;0;1444.4553;1444.4553;1444.4553;1444.4553;0;1339
2.042;1444.4553;1650.806058;0;1444.4553;1444.4553;1444.4553;1444.4553;0;1339
2.044;1444.4553;1650.806058;0;1444.4553;1444.4553;1444.4553;1444.4553;0;1340
2.046;1650.806058;1650.806058;0;1444.4553;1444.4553;1444.4553;1444.4553;0;1340
2.048;1650.806058;1650.806058;0;1650.806058;1444.4553;1444.4553;1444.4553;0;1341
2.05;1650.806058;1650.806058;0;1857.156815;1444.4553;1444.4553;1444.4553;0;1341
2.052;1650.806058;1444.4553;0;1650.806058;1444.4553;1444.4553;1444.4553;0;1341
2.054;1444.4553;1650.806058;0;1650.806058;1444.4553;1444.4553;1444.4553;0;1341
2.056;1444.4553;1650.806058;0;825.4030288;1444.4553;1444.4553;1444.4553;0;1335
2.058;1031.753786;1650.806058;0;825.4030288;1444.4553;1444.4553;1444.4553;0;1337
2.06;1650.806058;1650.806058;0;1857.156815;1444.4553;1444.4553;1444.4553;0;1338
2.062;1650.806058;1444.4553;0;1857.156815;1444.4553;1444.4553;1444.4553;0;1339
2.064;1650.806058;1444.4553;0;1857.156815;1444.4553;1444.4553;1444.4553;0;1339
2.066;1650.806058;1650.806058;0;2063.507572;1444.4553;1444.4553;1444.4553;0;1339
2.068;1650.806058;1650.806058;0;1857.156815;1444.4553;1444.4553;1444.4553;0;1340
2.07;1650.806058;1650.806058;0;1650.806058;1444.4553;1444.4553;1444.4553;0;1340
2.072;1650.806058;1650.806058;0;1444.4553;1444.4553;1444.4553;1444.4553;0;1340
2.074;1444.4553;1650.806058;0;1238.104543;1444.4553;1444.4553;1444.4553;0;1341
2.076;1444.4553;1650.806058;0;1444.4553;1444.4553;1444.4553;1444.4553;0;1341
2.078;1444.4553;1650.806058;0;1444.4553;1444.4553;1444.4553;1444.4553;0;1341
2.08;1444.4553;1650.806058;0;1650.806058;1444.4553;1444.4553;1444.4553;0;1341
2.082;1650.806058;1444.4553;0;1444.4553;1444.4553;1444.4553;1444.4553;0;1336
2.084;1238.104543;1650.806058;0;619.0522716;1444.4553;1444.4553;1444.4553;0;1337
2.086;1650.806058;1444.4553;0;1857.156815;1444.4553;1444.4553;1444.4553;0;1338
2.088;1650.806058;1444.4553;0;1650.806058;1444.4553;1444.4553;1444.4553;0;1338
2.09;1650.806058;1650.806058;0;1444.4553;1444.4553;1444.4553;1444.4553;0;1338
2.092;1650.806058;1650.806058;0;1444.4553;1444.4553;1444.4553;1444.4553;0;1339
2.094;1650.806058;1650.806058;0;1650.806058;1444.4553;1444.4553;1444.4553;0;1339
2.096;1650.806058;1444.4553;0;1650.806058;1444.4553;1444.4553;1444.4553;0;1340
2.098;1650.806058;1444.4553;0;1857.156815;1444.4553;1444.4553;1444.4553;0;1340
2.1;1650.806058;1444.4553;0;1650.806058;1650.806058;1650.806058;1650.806058;0;1341
2.102;1650.806058;1444.4553;0;1650.806058;1444.4553;1444.4553;1444.4553;0;1341
2.104;1444.4553;1444.4553;0;1444.4553;1444.4553;1444.4553;1444.4553;0;1341
2.106;1444.4553;1650.806058;0;1238.104543;1444.4553;1444.4553;1444.4553;0;1342
2.108;1444.4553;1444.4553;0;1031.753786;1444.4553;1444.4553;1444.4553;0;1336
2.11;1238.104543;1650.806058;0;619.0522716;1444.4553;1444.4553;1444.4553;0;1337
2.112;1650.806058;1444.4553;0;2063.507572;1444.4553;1444.4553;1444.4553;0;1338
2.114;1650.806058;1650.806058;0;2063.507572;1444.4553;1444.4553;1444.4553;0;1339
2.116;1650.806058;1650.806058;0;1857.156815;1444.4553;1444.4553;1444.4553;0;1339
2.118;1650.806058;1650.806058;0;1650.806058;1444.4553;1444.4553;1444.4553;0;1340
2.12;1650.806058;1650.806058;0;1444.4553;1444.4553;1444.4553;1444.4553;0;1340
2.122;1444.4553;1650.806058;0;1238.104543;1444.4553;1444.4553;1444.4553;0;1341
2.124;1444.4553;1650.806058;0;1238.104543;1444.4553;1444.4553;1444.4553;0;1341
2.126;1444.4553;1650.806058;0;1444.4553;1444.4553;1444.4553;1444.4553;0;1341
2.128;1444.4553;1650.806058;0;1650.806058;1444.4553;1444.4553;1444.4553;0;1341
2.13;1650.806058;1650.806058;0;1857.156815;1444.4553;1444.4553;1444.4553;0;1341
2.132;1650.806058;1650.806058;0;1650.806058;1444.4553;1444.4553;1444.4553;0;1342
2.134;1444.4553;1650.806058;0;1238.104543;1444.4553;1444.4553;1444.4553;0;1336
2.136;1238.104543;1650.806058;0;619.0522716;1444.4553;1444.4553;1444.4553;0;1337
2.138;1650.806058;1650.806058;0;1650.806058;1444.4553;1444.4553;1444.4553;0;1338
2.14;1444.4553;1650.806058;0;1650.806058;1650.806058;1650.806058;1650.806058;0;1338
2.142;1650.806058;1650.806058;0;1650.806058;1650.806058;1650.806058;1650.806058;0;1339
2.144;1650.806058;1650.806058;0;1857.156815;1444.4553;1444.4553;1444.4553;0;1339
2.146;1650.806058;1650.806058;0;1857.156815;1444.4553;1444.4553;1444.4553;0;1339
2.148;1650.806058;1444.4553;0;1650.806058;1444.4553;1444.4553;1444.4553;0;1340
2.15;1650.806058;1444.4553;0;1650.806058;1444.4553;1444.4553;1444.4553;0;1340
2.152;1650.806058;1650.806058;0;1444.4553;1444.4553;1444.4553;1444.4553;0;1340
2.154;1444.4553;1444.4553;0;1238.104543;1650.806058;1650.806058;1650.806058;0;1341
2.156;1650.806058;1650.806058;0;1444.4553;1650.806058;1650.806058;1650.806058;0;1341
2.158;1650.806058;1650.806058;0;1444.4553;1650.806058;1650.806058;1650.806058;0;1340
2.16;1444.4553;1444.4553;0;1444.4553;1444.4553;1444.4553;1444.4553;0;1335
2.162;1238.104543;1650.806058;0;619.0522716;1444.4553;1444.4553;1444.4553;0;1336
2.164;1650.806058;1444.4553;0;2063.507572;1444.4553;1444.4553;1444.4553;0;1336
2.166;1650.806058;1444.4553;0;1857.156815;1444.4553;1444.4553;1444.4553;0;1337
2.168;1650.806058;1650.806058;0;1650.806058;1444.4553;1444.4553;1444.4553;0;1338
2.17;1444.4553;1650.806058;0;1238.104543;1444.4553;1444.4553;1444.4553;0;1338
2.172;1444.4553;1650.806058;0;1238.104543;1444.4553;1444.4553;1444.4553;0;1338
2.174;1444.4553;1444.4553;0;1444.4553;1444.4553;1444.4553;1444.4553;0;1338
2.176;1650.806058;1444.4553;0;1650.806058;1650.806058;1650.806058;1650.806058;0;1339
2.178;1650.806058;1444.4553;0;1650.806058;1650.806058;1650.806058;1650.806058;0;1339
2.18;1650.806058;1444.4553;0;1650.806058;1444.4553;1444.4553;1444.4553;0;1340
2.182;1650.806058;1444.4553;0;1650.806058;1444.4553;1444.4553;1444.4553;0;1340
2.184;1650.806058;1650.806058;0;1444.4553;1444.4553;1444.4553;1444.4553;0;1340
2.186;1444.4553;1650.806058;0;825.4030288;1444.4553;1444.4553;1444.4553;0;1334
2.188;1238.104543;1650.806058;0;412.7015144;1444.4553;1444.4553;1444.4553;0;1334
2.19;1650.806058;1444.4553;0;1857.156815;1444.4553;1444.4553;1444.4553;0;1335
2.192;1650.806058;1444.4553;0;1857.156815;1444.4553;1444.4553;1444.4553;0;1335
2.194;1650.806058;1444.4553;0;2063.507572;1444.4553;1444.4553;1444.4553;0;1335
2.196;1650.806058;1444.4553;0;1857.156815;1444.4553;1444.4553;1444.4553;0;1334
2.198;1650.806058;1444.4553;0;1444.4553;1650.806058;1650.806058;1650.806058;0;1334
2.2;1650.806058;1444.4553;0;1444.4553;1444.4553;1444.4553;1444.4553;0;1334
2.202;1650.806058;1650.806058;0;1238.104543;1444.4553;1444.4553;1444.4553;0;1334
2.204;1444.4553;1650.806058;0;1238.104543;1444.4553;1444.4553;1444.4553;0;1334
2.206;1444.4553;1650.806058;0;1444.4553;1444.4553;1444.4553;1444.4553;0;1334
2.208;1650.806058;1650.806058;0;1650.806058;1444.4553;1444.4553;1444.4553;0;1333
2.21;1444.4553;1444.4553;0;1650.806058;1650.806058;1650.806058;1650.806058;0;1333
2.212;1650.806058;1650.806058;0;1650.806058;1650.806058;1650.806058;1650.806058;0;1327
2.214;1238.104543;1650.806058;0;619.0522716;1444.4553;1444.4553;1444.4553;0;1328
2.216;1650.806058;1444.4553;0;1857.156815;1444.4553;1444.4553;1444.4553;0;1328
2.218;1650.806058;1444.4553;0;1650.806058;1444.4553;1444.4553;1444.4553;0;1328
2.22;1650.806058;1444.4553;0;1650.806058;1650.806058;1650.806058;1650.806058;0;1329
2.222;1857.156815;1650.806058;0;1857.156815;1650.806058;1650.806058;1650.806058;0;1328
2.224;1650.806058;1444.4553;0;1857.156815;1650.806058;1650.806058;1650.806058;0;1328
2.226;1650.806058;1444.4553;0;1857.156815;1444.4553;1444.4553;1444.4553;0;1328
2.228;1650.806058;1444.4553;0;1857.156815;1650.806058;1650.806058;1650.806058;0;1328
2.23;1650.806058;1444.4553;0;1650.806058;1650.806058;1650.806058;1650.806058;0;1328
2.232;1444.4553;1650.806058;0;1650.806058;1444.4553;1444.4553;1444.4553;0;1328
2.234;1238.104543;1650.806058;0;1444.4553;1444.4553;1444.4553;1444.4553;0;1328
2.236;1444.4553;1650.806058;0;1444.4553;1444.4553;1444.4553;1444.4553;0;1328
2.238;1857.156815;1650.806058;0;1650.806058;1650.806058;1650.806058;1650.806058;0;1320
2.24;1857.156815;1650.806058;0;619.0522716;1650.806058;1650.806058;1650.806058;0;1315
2.242;1857.156815;1650.806058;0;2269.858329;1444.4553;1444.4553;1444.4553;0;1316
2.244;1857.156815;1650.806058;0;1857.156815;1444.4553;1444.4553;1444.4553;0;1318
2.246;1031.753786;1444.4553;0;1031.753786;1444.4553;1444.4553;1444.4553;0;1318
2.248;1444.4553;1444.4553;0;1031.753786;1444.4553;1444.4553;1444.4553;0;1319
2.25;1857.156815;1650.806058;0;825.4030288;1650.806058;1650.806058;1650.806058;0;1319
2.252;2063.507572;1650.806058;0;619.0522716;1650.806058;1650.806058;1650.806058;0;1320
2.254;2888.910601;1650.806058;0;1031.753786;1444.4553;1444.4553;1444.4553;0;1321
2.256;2888.910601;1650.806058;0;1031.753786;1444.4553;1444.4553;1444.4553;0;1321
2.258;2063.507572;1444.4553;0;1238.104543;1444.4553;1444.4553;1444.4553;0;1321
2.26;1650.806058;1444.4553;0;2063.507572;1650.806058;1650.806058;1650.806058;0;1322
2.262;412.7015144;1650.806058;0;2476.209086;1650.806058;1650.806058;1650.806058;0;1322
2.264;825.4030288;1650.806058;0;825.4030288;1444.4553;1444.4553;1444.4553;0;1316
2.266;1650.806058;1650.806058;0;412.7015144;1444.4553;1444.4553;1444.4553;0;1317
2.268;1238.104543;1650.806058;0;2063.507572;1444.4553;1444.4553;1444.4553;0;1318
2.27;1031.753786;1650.806058;0;1857.156815;1650.806058;1650.806058;1650.806058;0;1319
2.272;2269.858329;1650.806058;0;2269.858329;1650.806058;1650.806058;1650.806058;0;1319
2.274;3095.261358;1650.806058;0;2063.507572;1444.4553;1444.4553;1444.4553;0;1320
2.276;1444.4553;1650.806058;0;1650.806058;1444.4553;1444.4553;1444.4553;0;1320
2.278;206.3507572;1650.806058;0;412.7015144;1238.104543;1238.104543;1238.104543;0;1320
2.28;0;1444.4553;0;412.7015144;1444.4553;1444.4553;1444.4553;0;1321
2.282;1238.104543;1650.806058;0;825.4030288;1444.4553;1444.4553;1444.4553;0;1321
2.284;1650.806058;1650.806058;0;825.4030288;1444.4553;1444.4553;1444.4553;0;1321
2.286;1031.753786;1650.806058;0;1031.753786;1650.806058;1650.806058;1650.806058;0;1321
2.288;1444.4553;1650.806058;0;412.7015144;1444.4553;1444.4553;1444.4553;0;1321
2.29;2888.910601;1650.806058;0;2063.507572;1031.753786;1031.753786;1031.753786;0;1316
2.292;3095.261358;1650.806058;0;619.0522716;1238.104543;1238.104543;1238.104543;0;1317
2.294;2888.910601;1650.806058;0;2682.559844;1650.806058;1650.806058;1650.806058;0;1318
2.296;1857.156815;1650.806058;0;2888.910601;1650.806058;1650.806058;1650.806058;0;1319
2.298;2888.910601;1650.806058;0;2476.209086;1444.4553;1444.4553;1444.4553;0;1319
2.3;1857.156815;1444.4553;0;1238.104543;1238.104543;1238.104543;1238.104543;0;1320
2.302;206.3507572;1650.806058;0;619.0522716;1238.104543;1238.104543;1238.104543;0;1320
2.304;0;1650.806058;0;1238.104543;1857.156815;1857.156815;1857.156815;0;1320
2.306;206.3507572;1650.806058;0;2063.507572;1857.156815;1857.156815;1857.156815;0;1321
2.308;1857.156815;1650.806058;0;1650.806058;1650.806058;1650.806058;1650.806058;0;1321
2.31;2476.209086;1650.806058;0;1031.753786;1444.4553;1444.4553;1444.4553;0;1321
2.312;2269.858329;1650.806058;0;825.4030288;1650.806058;1650.806058;1650.806058;0;1321
2.314;1444.4553;1650.806058;0;1857.156815;1650.806058;1650.806058;1650.806058;0;1322
2.316;1238.104543;1650.806058;0;1444.4553;1650.806058;1650.806058;1650.806058;0;1316
2.318;0;1650.806058;0;412.7015144;1444.4553;1444.4553;1444.4553;0;1317
2.32;412.7015144;1444.4553;0;619.0522716;1444.4553;1444.4553;1444.4553;0;1318
2.322;2682.559844;1444.4553;0;2682.559844;1857.156815;1857.156815;1857.156815;0;1319
2.324;3095.261358;1650.806058;0;3095.261358;1444.4553;1444.4553;1444.4553;0;1320
2.326;3095.261358;1650.806058;0;3095.261358;1444.4553;1444.4553;1444.4553;0;1320
2.328;3095.261358;1444.4553;0;2682.559844;1444.4553;1444.4553;1444.4553;0;1320
2.33;1238.104543;1650.806058;0;1238.104543;1238.104543;1238.104543;1238.104543;0;1321
2.332;0;1650.806058;0;412.7015144;1444.4553;1444.4553;1444.4553;0;1321
2.334;0;1650.806058;0;0;825.4030288;825.4030288;825.4030288;0;1321
2.336;206.3507572;1444.4553;0;0;1444.4553;1444.4553;1444.4553;0;1321
2.338;1031.753786;1444.4553;0;0;1650.806058;1650.806058;1650.806058;0;1321
2.34;1650.806058;1650.806058;0;412.7015144;2063.507572;2063.507572;2063.507572;0;1322
2.342;1444.4553;1857.156815;0;619.0522716;1444.4553;1444.4553;1444.4553;0;1322
2.344;1444.4553;1650.806058;0;0;1650.806058;1650.806058;1650.806058;0;1317
2.346;1444.4553;1444.4553;0;825.4030288;1857.156815;1857.156815;1857.156815;0;1318
2.348;1031.753786;1444.4553;0;2063.507572;1857.156815;1857.156815;1857.156815;0;1318
2.35;1238.104543;1650.806058;0;2476.209086;1650.806058;1650.806058;1650.806058;0;1319
2.352;2682.559844;1650.806058;0;3095.261358;1650.806058;1650.806058;1650.806058;0;1320
2.354;3095.261358;1444.4553;0;2269.858329;1857.156815;1857.156815;1857.156815;0;1320
2.356;3095.261358;1650.806058;0;2063.507572;1650.806058;1650.806058;1650.806058;0;1321
2.358;825.4030288;1857.156815;0;1444.4553;1650.806058;1650.806058;1650.806058;0;1321
2.36;0;2063.507572;0;2888.910601;1031.753786;1031.753786;1031.753786;0;1321
2.362;619.0522716;1650.806058;0;2682.559844;1031.753786;1031.753786;1031.753786;0;1321
2.364;2269.858329;1238.104543;0;1857.156815;1650.806058;1650.806058;1650.806058;0;1321
2.366;3095.261358;1031.753786;0;2063.507572;2269.858329;2269.858329;2269.858329;0;1321
2.368;619.0522716;1650.806058;0;3095.261358;1444.4553;1444.4553;1444.4553;0;1316
2.37;0;1444.4553;0;2888.910601;1857.156815;1857.156815;1857.156815;0;1317
2.372;0;1444.4553;0;3095.261358;1238.104543;1238.104543;1238.104543;0;1318
2.374;1031.753786;1650.806058;0;825.4030288;619.0522716;619.0522716;619.0522716;0;1319
2.376;2888.910601;1650.806058;0;206.3507572;1444.4553;1444.4553;1444.4553;0;1319
2.378;3095.261358;1650.806058;0;0;2063.507572;2063.507572;2063.507572;0;1319
2.38;3095.261358;1857.156815;0;2476.209086;1444.4553;1444.4553;1444.4553;0;1320
2.382;3095.261358;1857.156815;0;1238.104543;1031.753786;1031.753786;1031.753786;0;1320
2.384;412.7015144;1650.806058;0;1857.156815;1444.4553;1444.4553;1444.4553;0;1321
2.386;0;1650.806058;0;1857.156815;2269.858329;2269.858329;2269.858329;0;1321
2.388;1238.104543;1650.806058;0;2063.507572;1857.156815;1857.156815;1857.156815;0;1322
2.39;2888.910601;1650.806058;0;619.0522716;1444.4553;1444.4553;1444.4553;0;1322
2.392;1857.156815;1650.806058;0;0;1238.104543;1238.104543;1238.104543;0;1322
2.394;2476.209086;1650.806058;0;1857.156815;1857.156815;1857.156815;1857.156815;0;1316
2.396;3095.261358;2476.209086;0;1031.753786;1650.806058;1650.806058;1650.806058;0;1317
2.398;2888.910601;3095.261358;0;1031.753786;825.4030288;825.4030288;825.4030288;0;1318
2.4;2682.559844;3095.261358;0;206.3507572;1857.156815;1857.156815;1857.156815;0;1319
2.402;412.7015144;1444.4553;0;0;1857.156815;1857.156815;1857.156815;0;1320
2.404;0;1031.753786;0;0;1857.156815;1857.156815;1857.156815;0;1320
2.406;0;2888.910601;0;0;1444.4553;1444.4553;1444.4553;0;1321
2.408;0;3095.261358;0;1031.753786;1031.753786;1031.753786;1031.753786;0;1321
2.41;1650.806058;825.4030288;0;412.7015144;1650.806058;1650.806058;1650.806058;0;1322
2.412;2888.910601;0;0;0;1857.156815;1857.156815;1857.156815;0;1322
2.414;2269.858329;0;0;0;1650.806058;1650.806058;1650.806058;0;1323
2.416;619.0522716;206.3507572;0;0;1650.806058;1650.806058;1650.806058;0;1323
2.418;2063.507572;1238.104543;0;0;1444.4553;1444.4553;1444.4553;0;1323
2.42;2063.507572;2888.910601;0;3095.261358;1857.156815;1857.156815;1857.156815;0;1317
2.422;2888.910601;2269.858329;0;3095.261358;1650.806058;1650.806058;1650.806058;0;1318
2.424;3095.261358;412.7015144;0;3095.261358;1444.4553;1444.4553;1444.4553;0;1319
2.426;2269.858329;619.0522716;0;2269.858329;1238.104543;1238.104543;1238.104543;0;1319
2.428;825.4030288;1650.806058;0;2063.507572;1650.806058;1650.806058;1650.806058;0;1320
2.43;1444.4553;1650.806058;0;3095.261358;1444.4553;1444.4553;1444.4553;0;1321
2.432;1238.104543;1444.4553;0;3095.261358;1031.753786;1031.753786;1031.753786;0;1321
2.434;1031.753786;1650.806058;0;3095.261358;1650.806058;1650.806058;1650.806058;0;1322
2.436;2476.209086;1650.806058;0;3095.261358;1444.4553;1444.4553;1444.4553;0;1322
2.438;3095.261358;1857.156815;0;3095.261358;1444.4553;1444.4553;1444.4553;0;1323
2.44;1238.104543;1857.156815;0;825.4030288;1444.4553;1444.4553;1444.4553;0;1323
2.442;206.3507572;1857.156815;0;0;1444.4553;1444.4553;1444.4553;0;1323
2.444;1238.104543;2063.507572;0;0;1444.4553;1444.4553;1444.4553;0;1323
2.446;1238.104543;1857.156815;0;1031.753786;2682.559844;2682.559844;2682.559844;0;1318
2.448;2063.507572;1857.156815;0;1031.753786;1444.4553;1444.4553;1444.4553;0;1319
2.45;3095.261358;1857.156815;0;1650.806058;1238.104543;1238.104543;1238.104543;0;1319
2.452;2682.559844;1650.806058;0;206.3507572;1238.104543;1238.104543;1238.104543;0;1320
2.454;619.0522716;1650.806058;0;0;1444.4553;1444.4553;1444.4553;0;1321
2.456;0;1650.806058;0;0;1650.806058;1650.806058;1650.806058;0;1321
2.458;0;1650.806058;0;0;1857.156815;1857.156815;1857.156815;0;1322
2.46;825.4030288;2063.507572;0;825.4030288;1444.4553;1444.4553;1444.4553;0;1322
2.462;2269.858329;2269.858329;0;2269.858329;1650.806058;1650.806058;1650.806058;0;1322
2.464;3095.261358;2063.507572;0;3095.261358;1650.806058;1650.806058;1650.806058;0;1322
2.466;3095.261358;1238.104543;0;2269.858329;1238.104543;1238.104543;1238.104543;0;1323
2.468;3095.261358;1031.753786;0;825.4030288;1444.4553;1444.4553;1444.4553;0;1323
2.47;3095.261358;1444.4553;0;206.3507572;2063.507572;2063.507572;2063.507572;0;1323
2.472;1650.806058;2476.209086;0;2063.507572;1238.104543;1238.104543;1238.104543;0;1318
2.474;0;1857.156815;0;2682.559844;1650.806058;1650.806058;1650.806058;0;1319
2.476;0;1238.104543;0;3095.261358;1444.4553;1444.4553;1444.4553;0;1320
2.478;0;1650.806058;0;2682.559844;1444.4553;1444.4553;1444.4553;0;1321
2.48;0;2476.209086;0;206.3507572;1857.156815;1857.156815;1857.156815;0;1322
2.482;0;1857.156815;0;0;1857.156815;1857.156815;1857.156815;0;1322
2.484;0;412.7015144;0;0;1650.806058;1650.806058;1650.806058;0;1323
2.486;825.4030288;0;0;1444.4553;1650.806058;1650.806058;1650.806058;0;1323
2.488;619.0522716;619.0522716;0;2063.507572;1444.4553;1444.4553;1444.4553;0;1323
2.49;1031.753786;1031.753786;0;2476.209086;1444.4553;1444.4553;1444.4553;0;1324
2.492;2269.858329;1444.4553;0;2682.559844;1650.806058;1650.806058;1650.806058;0;1324
2.494;2888.910601;1444.4553;0;3095.261358;1444.4553;1444.4553;1444.4553;0;1324
2.496;2682.559844;1650.806058;0;3095.261358;1444.4553;1444.4553;1444.4553;0;1324
2.498;2063.507572;1444.4553;0;825.4030288;1444.4553;1444.4553;1444.4553;0;1319
2.5;1238.104543;1444.4553;0;0;1650.806058;1650.806058;1650.806058;0;1320
2.502;1444.4553;1650.806058;0;412.7015144;1650.806058;1650.806058;1650.806058;0;1321
2.504;2269.858329;1650.806058;0;2476.209086;1650.806058;1650.806058;1650.806058;0;1321
2.506;2476.209086;1444.4553;0;3095.261358;1650.806058;1650.806058;1650.806058;0;1322
2.508;2269.858329;1444.4553;0;3095.261358;1650.806058;1650.806058;1650.806058;0;1322
2.51;1650.806058;1444.4553;0;1857.156815;1650.806058;1650.806058;1650.806058;0;1323
2.512;1031.753786;1444.4553;0;1238.104543;1444.4553;1444.4553;1444.4553;0;1323
2.514;1031.753786;1444.4553;0;206.3507572;1444.4553;1444.4553;1444.4553;0;1324
2.516;1857.156815;1444.4553;0;0;1238.104543;1238.104543;1238.104543;0;1324
2.518;2063.507572;1444.4553;0;206.3507572;1444.4553;1444.4553;1444.4553;0;1324
2.52;2063.507572;1444.4553;0;1031.753786;1444.4553;1444.4553;1444.4553;0;1325
2.522;1238.104543;1444.4553;0;2269.858329;1444.4553;1444.4553;1444.4553;0;1325
2.524;1444.4553;1650.806058;0;2682.559844;1857.156815;1857.156815;1857.156815;0;1320
2.526;1857.156815;1444.4553;0;1031.753786;1650.806058;1650.806058;1650.806058;0;1321
2.528;1857.156815;1444.4553;0;2682.559844;1031.753786;1031.753786;1031.753786;0;1322
2.53;1650.806058;1238.104543;0;1031.753786;1444.4553;1444.4553;1444.4553;0;1322
2.532;2063.507572;1238.104543;0;206.3507572;1857.156815;1857.156815;1857.156815;0;1323
2.534;1444.4553;1444.4553;0;619.0522716;1650.806058;1650.806058;1650.806058;0;1323
2.536;412.7015144;1444.4553;0;1238.104543;1650.806058;1650.806058;1650.806058;0;1324
2.538;1238.104543;1444.4553;0;1444.4553;1650.806058;1650.806058;1650.806058;0;1325
2.54;2269.858329;1444.4553;0;1650.806058;1650.806058;1650.806058;1650.806058;0;1325
2.542;2269.858329;1444.4553;0;1857.156815;1444.4553;1444.4553;1444.4553;0;1325
2.544;1444.4553;1444.4553;0;2269.858329;1650.806058;1650.806058;1650.806058;0;1326
2.546;1238.104543;1444.4553;0;2269.858329;1444.4553;1444.4553;1444.4553;0;1326
2.548;1238.104543;1444.4553;0;2063.507572;1650.806058;1650.806058;1650.806058;0;1326
2.55;1857.156815;1444.4553;0;1444.4553;1650.806058;1650.806058;1650.806058;0;1321
2.552;1444.4553;1444.4553;0;619.0522716;1444.4553;1444.4553;1444.4553;0;1322
2.554;1650.806058;1444.4553;0;2063.507572;1444.4553;1444.4553;1444.4553;0;1322
2.556;1650.806058;1444.4553;0;2063.507572;1650.806058;1650.806058;1650.806058;0;1323
2.558;1650.806058;1444.4553;0;1857.156815;1444.4553;1444.4553;1444.4553;0;1324
2.56;1650.806058;1444.4553;0;1857.156815;1444.4553;1444.4553;1444.4553;0;1324
2.562;1650.806058;1444.4553;0;1857.156815;1444.4553;1444.4553;1444.4553;0;1325
2.564;1650.806058;1444.4553;0;2063.507572;1444.4553;1444.4553;1444.4553;0;1325
2.566;1650.806058;1444.4553;0;2269.858329;1650.806058;1650.806058;1650.806058;0;1325
2.568;1650.806058;1444.4553;0;2269.858329;1650.806058;1650.806058;1650.806058;0;1325
2.57;1650.806058;1444.4553;0;2063.507572;1444.4553;1444.4553;1444.4553;0;1326
2.572;1650.806058;1444.4553;0;1650.806058;1650.806058;1650.806058;1650.806058;0;1326
2.574;1444.4553;1444.4553;0;1444.4553;1444.4553;1444.4553;1444.4553;0;1326
2.576;1444.4553;1444.4553;0;1650.806058;1444.4553;1444.4553;1444.4553;0;1326
2.578;1650.806058;1444.4553;0;2063.507572;1650.806058;1650.806058;1650.806058;0;1320
2.58;1238.104543;1444.4553;0;412.7015144;1444.4553;1444.4553;1444.4553;0;1322
2.582;1650.806058;1444.4553;0;2269.858329;1444.4553;1444.4553;1444.4553;0;1323
2.584;1650.806058;1444.4553;0;2269.858329;1650.806058;1650.806058;1650.806058;0;1324
2.586;1650.806058;1444.4553;0;1857.156815;1650.806058;1650.806058;1650.806058;0;1324
2.588;1650.806058;1444.4553;0;1857.156815;1444.4553;1444.4553;1444.4553;0;1324
2.59;1444.4553;1444.4553;0;1650.806058;1444.4553;1444.4553;1444.4553;0;1325
2.592;1444.4553;1444.4553;0;1650.806058;1650.806058;1650.806058;1650.806058;0;1325
2.594;1650.806058;1444.4553;0;1857.156815;1650.806058;1650.806058;1650.806058;0;1325
2.596;1650.806058;1444.4553;0;2269.858329;1650.806058;1650.806058;1650.806058;0;1325
2.598;1650.806058;1444.4553;0;2476.209086;1650.806058;1650.806058;1650.806058;0;1326
2.6;1650.806058;1444.4553;0;2063.507572;1650.806058;1650.806058;1650.806058;0;1326
2.602;1444.4553;1444.4553;0;825.4030288;1444.4553;1444.4553;1444.4553;0;1320
2.604;1031.753786;1444.4553;0;412.7015144;1650.806058;1650.806058;1650.806058;0;1321
2.606;1444.4553;1444.4553;0;1650.806058;1444.4553;1444.4553;1444.4553;0;1322
2.608;1650.806058;1444.4553;0;1444.4553;1444.4553;1444.4553;1444.4553;0;1323
2.61;1650.806058;1444.4553;0;1650.806058;1444.4553;1444.4553;1444.4553;0;1323
2.612;1650.806058;1444.4553;0;1857.156815;1650.806058;1650.806058;1650.806058;0;1323
2.614;1650.806058;1444.4553;0;2063.507572;1444.4553;1444.4553;1444.4553;0;1324
2.616;1650.806058;1444.4553;0;2063.507572;1444.4553;1444.4553;1444.4553;0;1324
2.618;1650.806058;1444.4553;0;1857.156815;1444.4553;1444.4553;1444.4553;0;1325
2.62;1650.806058;1444.4553;0;1650.806058;1444.4553;1444.4553;1444.4553;0;1325
2.622;1444.4553;1444.4553;0;1444.4553;1444.4553;1444.4553;1444.4553;0;1326
2.624;1444.4553;1444.4553;0;1238.104543;1444.4553;1444.4553;1444.4553;0;1326
2.626;1444.4553;1444.4553;0;1238.104543;1444.4553;1444.4553;1444.4553;0;1326
2.628;1650.806058;1444.4553;0;1444.4553;1444.4553;1444.4553;1444.4553;0;1321
2.63;1238.104543;1650.806058;0;619.0522716;1444.4553;1444.4553;1444.4553;0;1322
2.632;1650.806058;1650.806058;0;2063.507572;1444.4553;1444.4553;1444.4553;0;1322
2.634;1650.806058;1650.806058;0;1857.156815;1444.4553;1444.4553;1444.4553;0;1323
2.636;1650.806058;1444.4553;0;1650.806058;1444.4553;1444.4553;1444.4553;0;1323
2.638;1444.4553;1238.104543;0;1444.4553;1444.4553;1444.4553;1444.4553;0;1324
2.64;1444.4553;1444.4553;0;1444.4553;1444.4553;1444.4553;1444.4553;0;1324
2.642;1650.806058;1444.4553;0;1444.4553;1444.4553;1444.4553;1444.4553;0;1325
2.644;1650.806058;1650.806058;0;1650.806058;1444.4553;1444.4553;1444.4553;0;1325
2.646;1650.806058;1650.806058;0;1857.156815;1444.4553;1444.4553;1444.4553;0;1325
2.648;1650.806058;1444.4553;0;1857.156815;1650.806058;1650.806058;1650.806058;0;1325
2.65;1650.806058;1650.806058;0;1650.806058;1650.806058;1650.806058;1650.806058;0;1326
2.652;1444.4553;1857.156815;0;1444.4553;1650.806058;1650.806058;1650.806058;0;1326
2.654;1444.4553;1238.104543;0;1031.753786;1444.4553;1444.4553;1444.4553;0;1320
2.656;1031.753786;1238.104543;0;412.7015144;1444.4553;1444.4553;1444.4553;0;1321
2.658;1650.806058;1444.4553;0;2063.507572;1650.806058;1650.806058;1650.806058;0;1322
2.66;1650.806058;1444.4553;0;1857.156815;1650.806058;1650.806058;1650.806058;0;1323
2.662;1650.806058;1650.806058;0;1857.156815;1650.806058;1650.806058;1650.806058;0;1323
2.664;1650.806058;1650.806058;0;1857.156815;1650.806058;1650.806058;1650.806058;0;1324
2.666;1650.806058;1650.806058;0;1650.806058;1650.806058;1650.806058;1650.806058;0;1324
2.668;1444.4553;1238.104543;0;1444.4553;1650.806058;1650.806058;1650.806058;0;1325
2.67;1444.4553;1238.104543;0;1444.4553;1650.806058;1650.806058;1650.806058;0;1325
2.672;1444.4553;1444.4553;0;1238.104543;1650.806058;1650.806058;1650.806058;0;1325
2.674;1444.4553;1650.806058;0;1238.104543;1650.806058;1650.806058;1650.806058;0;1326
2.676;1650.806058;1650.806058;0;1650.806058;1650.806058;1650.806058;1650.806058;0;1326
2.678;1650.806058;1444.4553;0;1650.806058;1650.806058;1650.806058;1650.806058;0;1326
2.68;1650.806058;1444.4553;0;1444.4553;1650.806058;1650.806058;1650.806058;0;1321
2.682;1238.104543;1650.806058;0;619.0522716;1650.806058;1650.806058;1650.806058;0;1323
2.684;1650.806058;1650.806058;0;1857.156815;1650.806058;1650.806058;1650.806058;0;1323
2.686;1650.806058;1650.806058;0;1444.4553;1650.806058;1650.806058;1650.806058;0;1325
2.688;1444.4553;1444.4553;0;1444.4553;1650.806058;1650.806058;1650.806058;0;1326
2.69;1444.4553;1444.4553;0;1444.4553;1650.806058;1650.806058;1650.806058;0;1326
2.692;1650.806058;1444.4553;0;1650.806058;1650.806058;1650.806058;1650.806058;0;1327
2.694;1650.806058;1444.4553;0;1857.156815;1650.806058;1650.806058;1650.806058;0;1327
2.696;1650.806058;1444.4553;0;1857.156815;1650.806058;1650.806058;1650.806058;0;1327
2.698;1650.806058;1444.4553;0;1650.806058;1650.806058;1650.806058;1650.806058;0;1327
2.7;1650.806058;1444.4553;0;1444.4553;1650.806058;1650.806058;1650.806058;0;1328
2.702;1444.4553;1444.4553;0;1444.4553;1650.806058;1650.806058;1650.806058;0;1328
2.704;1444.4553;1650.806058;0;1238.104543;1650.806058;1650.806058;1650.806058;0;1329
2.706;1444.4553;1444.4553;0;1031.753786;1444.4553;1444.4553;1444.4553;0;1324
2.708;1238.104543;1444.4553;0;619.0522716;1444.4553;1444.4553;1444.4553;0;1326
2.71;1650.806058;1444.4553;0;2063.507572;1650.806058;1650.806058;1650.806058;0;1327
2.712;1650.806058;1444.4553;0;2063.507572;1650.806058;1650.806058;1650.806058;0;1328
2.714;1650.806058;1444.4553;0;1857.156815;1650.806058;1650.806058;1650.806058;0;1329
2.716;1650.806058;1444.4553;0;1444.4553;1650.806058;1650.806058;1650.806058;0;1330
2.718;1650.806058;1444.4553;0;1444.4553;1444.4553;1444.4553;1444.4553;0;1330
2.72;1444.4553;1444.4553;0;1238.104543;1444.4553;1444.4553;1444.4553;0;1331
2.722;1444.4553;1444.4553;0;1238.104543;1444.4553;1444.4553;1444.4553;0;1332
2.724;1650.806058;1444.4553;0;1444.4553;1650.806058;1650.806058;1650.806058;0;1332
2.726;1650.806058;1444.4553;0;1444.4553;1650.806058;1650.806058;1650.806058;0;1333
2.728;1650.806058;1650.806058;0;1650.806058;1650.806058;1650.806058;1650.806058;0;1333
2.73;1650.806058;1650.806058;0;1857.156815;1650.806058;1650.806058;1650.806058;0;1334
2.732;1444.4553;1444.4553;0;1031.753786;1444.4553;1444.4553;1444.4553;0;1329
2.734;1031.753786;1444.4553;0;412.7015144;1444.4553;1444.4553;1444.4553;0;1330
2.736;1444.4553;1444.4553;0;1650.806058;1444.4553;1444.4553;1444.4553;0;1331
2.738;1650.806058;1444.4553;0;1650.806058;1444.4553;1444.4553;1444.4553;0;1333
2.74;1650.806058;1444.4553;0;1857.156815;1650.806058;1650.806058;1650.806058;0;1333
2.742;1650.806058;1444.4553;0;1857.156815;1650.806058;1650.806058;1650.806058;0;1334
2.744;1650.806058;1650.806058;0;1857.156815;1650.806058;1650.806058;1650.806058;0;1335
2.746;1650.806058;1650.806058;0;1857.156815;1650.806058;1650.806058;1650.806058;0;1336
2.748;1444.4553;1650.806058;0;1444.4553;1444.4553;1444.4553;1444.4553;0;1337
2.75;1444.4553;1444.4553;0;1444.4553;1444.4553;1444.4553;1444.4553;0;1337
2.752;1444.4553;1444.4553;0;1238.104543;1444.4553;1444.4553;1444.4553;0;1338
2.754;1444.4553;1444.4553;0;1238.104543;1444.4553;1444.4553;1444.4553;0;1339
2.756;1650.806058;1444.4553;0;1444.4553;1444.4553;1444.4553;1444.4553;0;1339
2.758;1650.806058;1444.4553;0;1238.104543;1444.4553;1444.4553;1444.4553;0;1334
2.76;1238.104543;1444.4553;0;619.0522716;1444.4553;1444.4553;1444.4553;0;1336
2.762;1650.806058;1444.4553;0;2063.507572;1444.4553;1444.4553;1444.4553;0;1337
2.764;1650.806058;1444.4553;0;1857.156815;1444.4553;1444.4553;1444.4553;0;1339
2.766;1650.806058;1444.4553;0;1650.806058;1444.4553;1444.4553;1444.4553;0;1340
2.768;1444.4553;1444.4553;0;1444.4553;1444.4553;1444.4553;1444.4553;0;1341
2.77;1444.4553;1444.4553;0;1444.4553;1444.4553;1444.4553;1444.4553;0;1341
2.772;1650.806058;1650.806058;0;1650.806058;1444.4553;1444.4553;1444.4553;0;1342
2.774;1650.806058;1444.4553;0;1650.806058;1444.4553;1444.4553;1444.4553;0;1343
2.776;1650.806058;1444.4553;0;1857.156815;1444.4553;1444.4553;1444.4553;0;1344
2.778;1650.806058;1650.806058;0;1857.156815;1444.4553;1444.4553;1444.4553;0;1344
2.78;1444.4553;1650.806058;0;1650.806058;1444.4553;1444.4553;1444.4553;0;1345
2.782;1444.4553;1650.806058;0;1444.4553;1444.4553;1444.4553;1444.4553;0;1346
2.784;1444.4553;1650.806058;0;825.4030288;1444.4553;1444.4553;1444.4553;0;1341
2.786;1031.753786;1650.806058;0;412.7015144;1444.4553;1444.4553;1444.4553;0;1343
2.788;1444.4553;1650.806058;0;1857.156815;1650.806058;1650.806058;1650.806058;0;1345
2.79;1650.806058;1650.806058;0;2063.507572;1444.4553;1444.4553;1444.4553;0;1346
2.792;1650.806058;1650.806058;0;1857.156815;1444.4553;1444.4553;1444.4553;0;1347
2.794;1650.806058;1650.806058;0;1650.806058;1444.4553;1444.4553;1444.4553;0;1348
2.796;1650.806058;1650.806058;0;1444.4553;1444.4553;1444.4553;1444.4553;0;1349
2.798;1444.4553;1650.806058;0;1444.4553;1444.4553;1444.4553;1444.4553;0;1350
2.8;1444.4553;1650.806058;0;1238.104543;1444.4553;1444.4553;1444.4553;0;1350
2.802;1444.4553;1650.806058;0;1238.104543;1444.4553;1444.4553;1444.4553;0;1351
2.804;1444.4553;1650.806058;0;1444.4553;1444.4553;1444.4553;1444.4553;0;1351
2.806;1444.4553;1650.806058;0;1650.806058;1444.4553;1444.4553;1444.4553;0;1352
2.808;1650.806058;1650.806058;0;1857.156815;1444.4553;1444.4553;1444.4553;0;1352
2.81;1650.806058;1650.806058;0;1650.806058;1650.806058;1650.806058;1650.806058;0;1347
2.812;1238.104543;1650.806058;0;619.0522716;1444.4553;1444.4553;1444.4553;0;1348
2.814;1650.806058;1650.806058;0;1857.156815;1444.4553;1444.4553;1444.4553;0;1349
2.816;1650.806058;1444.4553;0;1650.806058;1650.806058;1650.806058;1650.806058;0;1350
2.818;1650.806058;1444.4553;0;1650.806058;1444.4553;1444.4553;1444.4553;0;1351
2.82;1650.806058;1444.4553;0;1650.806058;1444.4553;1444.4553;1444.4553;0;1352
2.822;1650.806058;1444.4553;0;1857.156815;1650.806058;1650.806058;1650.806058;0;1353
2.824;1650.806058;1444.4553;0;1857.156815;1650.806058;1650.806058;1650.806058;0;1353
2.826;1650.806058;1444.4553;0;1857.156815;1650.806058;1650.806058;1650.806058;0;1354
2.828;1650.806058;1444.4553;0;1650.806058;1650.806058;1650.806058;1650.806058;0;1354
2.83;1650.806058;1444.4553;0;1444.4553;1650.806058;1650.806058;1650.806058;0;1354
2.832;1444.4553;1444.4553;0;1238.104543;1650.806058;1650.806058;1650.806058;0;1355
2.834;1444.4553;1444.4553;0;1238.104543;1650.806058;1650.806058;1650.806058;0;1355
2.836;1444.4553;1650.806058;0;1238.104543;1650.806058;1650.806058;1650.806058;0;1349
2.838;1238.104543;1650.806058;0;619.0522716;1650.806058;1650.806058;1650.806058;0;1350
2.84;1650.806058;1650.806058;0;2269.858329;1650.806058;1650.806058;1650.806058;0;1351
2.842;1650.806058;1650.806058;0;2063.507572;1650.806058;1650.806058;1650.806058;0;1352
2.844;1650.806058;1444.4553;0;1650.806058;1650.806058;1650.806058;1650.806058;0;1352
2.846;1650.806058;1444.4553;0;1444.4553;1650.806058;1650.806058;1650.806058;0;1353
2.848;1444.4553;1444.4553;0;1238.104543;1650.806058;1650.806058;1650.806058;0;1353
2.85;1444.4553;1444.4553;0;1238.104543;1650.806058;1650.806058;1650.806058;0;1354
2.852;1444.4553;1650.806058;0;1238.104543;1650.806058;1650.806058;1650.806058;0;1354
2.854;1650.806058;1857.156815;0;1444.4553;1650.806058;1650.806058;1650.806058;0;1355
2.856;1650.806058;1650.806058;0;1650.806058;1650.806058;1650.806058;1650.806058;0;1355
2.858;1650.806058;1238.104543;0;1650.806058;1650.806058;1650.806058;1650.806058;0;1355
2.86;1650.806058;1238.104543;0;1857.156815;1650.806058;1650.806058;1650.806058;0;1355
2.862;1650.806058;1650.806058;0;1238.104543;1650.806058;1650.806058;1650.806058;0;1349
2.864;1031.753786;1650.806058;0;412.7015144;1650.806058;1650.806058;1650.806058;0;1350
2.866;1650.806058;1650.806058;0;1650.806058;1650.806058;1650.806058;1650.806058;0;1351
2.868;1650.806058;1650.806058;0;1650.806058;1650.806058;1650.806058;1650.806058;0;1351
2.87;1650.806058;1444.4553;0;1857.156815;1650.806058;1650.806058;1650.806058;0;1352
2.872;1650.806058;1444.4553;0;1857.156815;1650.806058;1650.806058;1650.806058;0;1352
2.874;1650.806058;1444.4553;0;1857.156815;1650.806058;1650.806058;1650.806058;0;1352
2.876;1650.806058;1444.4553;0;1650.806058;1650.806058;1650.806058;1650.806058;0;1353
2.878;1444.4553;1650.806058;0;1444.4553;1650.806058;1650.806058;1650.806058;0;1353
2.88;1444.4553;1650.806058;0;1238.104543;1444.4553;1444.4553;1444.4553;0;1352
2.882;1444.4553;1650.806058;0;1238.104543;1444.4553;1444.4553;1444.4553;0;1353
2.884;1444.4553;1650.806058;0;1238.104543;1444.4553;1444.4553;1444.4553;0;1352
2.886;1444.4553;1650.806058;0;1444.4553;1444.4553;1444.4553;1444.4553;0;1352
2.888;1650.806058;1444.4553;0;1650.806058;1444.4553;1444.4553;1444.4553;0;1346
2.89;1238.104543;1444.4553;0;619.0522716;1444.4553;1444.4553;1444.4553;0;1347
2.892;1650.806058;1444.4553;0;1857.156815;1444.4553;1444.4553;1444.4553;0;1348
2.894;1650.806058;1444.4553;0;1650.806058;1444.4553;1444.4553;1444.4553;0;1348
2.896;1444.4553;1444.4553;0;1444.4553;1444.4553;1444.4553;1444.4553;0;1348
2.898;1444.4553;1650.806058;0;1444.4553;1444.4553;1444.4553;1444.4553;0;1348
2.9;1444.4553;1650.806058;0;1444.4553;1444.4553;1444.4553;1444.4553;0;1348
2.902;1650.806058;1650.806058;0;1650.806058;1444.4553;1444.4553;1444.4553;0;1348
2.904;1650.806058;1650.806058;0;1857.156815;1444.4553;1444.4553;1444.4553;0;1348
2.906;1650.806058;1444.4553;0;1857.156815;1444.4553;1444.4553;1444.4553;0;1348
2.908;1650.806058;1444.4553;0;1650.806058;1444.4553;1444.4553;1444.4553;0;1348
2.91;1650.806058;1444.4553;0;1444.4553;1444.4553;1444.4553;1444.4553;0;1347
2.912;1444.4553;1650.806058;0;1238.104543;1444.4553;1444.4553;1444.4553;0;1347
2.914;1444.4553;1650.806058;0;1238.104543;1444.4553;1444.4553;1444.4553;0;1341
2.916;1238.104543;1650.806058;0;206.3507572;1444.4553;1444.4553;1444.4553;0;1342
2.918;1650.806058;1444.4553;0;1857.156815;1444.4553;1444.4553;1444.4553;0;1343
2.92;1650.806058;1444.4553;0;2063.507572;1444.4553;1444.4553;1444.4553;0;1343
2.922;1650.806058;1444.4553;0;2063.507572;1444.4553;1444.4553;1444.4553;0;1343
2.924;1650.806058;1650.806058;0;1857.156815;1444.4553;1444.4553;1444.4553;0;1343
2.926;1650.806058;1650.806058;0;1650.806058;1444.4553;1444.4553;1444.4553;0;1343
2.928;1650.806058;1444.4553;0;1444.4553;1444.4553;1444.4553;1444.4553;0;1343
2.93;1444.4553;1444.4553;0;1238.104543;1444.4553;1444.4553;1444.4553;0;1343
2.932;1650.806058;1650.806058;0;1444.4553;1444.4553;1444.4553;1444.4553;0;1343
2.934;1650.806058;1650.806058;0;1650.806058;1444.4553;1444.4553;1444.4553;0;1343
2.936;1650.806058;1650.806058;0;1650.806058;1444.4553;1444.4553;1444.4553;0;1343
2.938;1650.806058;1650.806058;0;1857.156815;1444.4553;1444.4553;1444.4553;0;1343
2.94;1650.806058;1650.806058;0;1444.4553;1444.4553;1444.4553;1444.4553;0;1337
2.942;1031.753786;1650.806058;0;206.3507572;1444.4553;1444.4553;1444.4553;0;1338
2.944;1444.4553;1650.806058;0;1444.4553;1444.4553;1444.4553;1444.4553;0;1339
2.946;1650.806058;1650.806058;0;1444.4553;1444.4553;1444.4553;1444.4553;0;1339
2.948;1650.806058;1650.806058;0;1444.4553;1444.4553;1444.4553;1444.4553;0;1339
2.95;1650.806058;1444.4553;0;1650.806058;1444.4553;1444.4553;1444.4553;0;1340
2.952;1650.806058;1444.4553;0;1857.156815;1444.4553;1444.4553;1444.4553;0;1340
2.954;1650.806058;1444.4553;0;1857.156815;1444.4553;1444.4553;1444.4553;0;1340
